# {"date": "2014-05-05T11:08:14.320000", "MAC": "98:D3:31:B2:11:27", "ChannelsOrder": ["SeqN", "Digital0", "Digital1", "Digital2", "Digital3", "ECG"]}
0	1	1	1	1	472
1	1	1	1	1	454
2	1	1	1	1	435
3	1	1	1	1	415
4	1	1	1	1	401
5	1	1	1	1	391
6	1	1	1	1	384
7	1	1	1	1	385
8	1	1	1	1	391
9	1	1	1	1	408
10	1	1	1	1	423
11	1	1	1	1	444
12	1	1	1	1	463
13	1	1	1	1	481
14	1	1	1	1	496
15	1	1	1	1	504
0	1	1	1	1	504
1	1	1	1	1	499
2	1	1	1	1	487
3	1	1	1	1	472
4	1	1	1	1	455
5	1	1	1	1	435
6	1	1	1	1	415
7	1	1	1	1	398
8	1	1	1	1	384
9	1	1	1	1	371
10	1	1	1	1	368
11	1	1	1	1	368
12	1	1	1	1	376
13	1	1	1	1	391
14	1	1	1	1	409
15	1	1	1	1	432
0	1	1	1	1	455
1	1	1	1	1	473
2	1	1	1	1	487
3	1	1	1	1	497
4	1	1	1	1	499
5	1	1	1	1	496
6	1	1	1	1	483
7	1	1	1	1	472
8	1	1	1	1	451
9	1	1	1	1	432
10	1	1	1	1	412
11	1	1	1	1	391
12	1	1	1	1	377
13	1	1	1	1	368
14	1	1	1	1	359
15	1	1	1	1	364
0	1	1	1	1	374
1	1	1	1	1	387
2	1	1	1	1	408
3	1	1	1	1	432
4	1	1	1	1	455
5	1	1	1	1	480
6	1	1	1	1	496
7	1	1	1	1	505
8	1	1	1	1	511
9	1	1	1	1	508
10	1	1	1	1	499
11	1	1	1	1	487
12	1	1	1	1	472
13	1	1	1	1	451
14	1	1	1	1	432
15	1	1	1	1	415
0	1	1	1	1	399
1	1	1	1	1	391
2	1	1	1	1	384
3	1	1	1	1	385
4	1	1	1	1	391
5	1	1	1	1	408
6	1	1	1	1	428
7	1	1	1	1	448
8	1	1	1	1	472
9	1	1	1	1	487
10	1	1	1	1	504
11	1	1	1	1	513
12	1	1	1	1	515
13	1	1	1	1	512
14	1	1	1	1	504
15	1	1	1	1	487
0	1	1	1	1	472
1	1	1	1	1	451
2	1	1	1	1	432
3	1	1	1	1	415
4	1	1	1	1	399
5	1	1	1	1	390
6	1	1	1	1	384
7	1	1	1	1	384
8	1	1	1	1	391
9	1	1	1	1	403
10	1	1	1	1	423
11	1	1	1	1	444
12	1	1	1	1	463
13	1	1	1	1	483
14	1	1	1	1	499
15	1	1	1	1	511
0	1	1	1	1	512
1	1	1	1	1	511
2	1	1	1	1	504
3	1	1	1	1	487
4	1	1	1	1	472
5	1	1	1	1	455
6	1	1	1	1	440
7	1	1	1	1	423
8	1	1	1	1	408
9	1	1	1	1	399
10	1	1	1	1	396
11	1	1	1	1	396
12	1	1	1	1	403
13	1	1	1	1	417
14	1	1	1	1	438
15	1	1	1	1	460
0	1	1	1	1	480
1	1	1	1	1	499
2	1	1	1	1	515
3	1	1	1	1	526
4	1	1	1	1	527
5	1	1	1	1	524
6	1	1	1	1	513
7	1	1	1	1	499
8	1	1	1	1	481
9	1	1	1	1	463
10	1	1	1	1	444
11	1	1	1	1	423
12	1	1	1	1	408
13	1	1	1	1	399
14	1	1	1	1	391
15	1	1	1	1	391
0	1	1	1	1	399
1	1	1	1	1	415
2	1	1	1	1	432
3	1	1	1	1	455
4	1	1	1	1	478
5	1	1	1	1	496
6	1	1	1	1	512
7	1	1	1	1	519
8	1	1	1	1	524
9	1	1	1	1	519
10	1	1	1	1	510
11	1	1	1	1	494
12	1	1	1	1	473
13	1	1	1	1	454
14	1	1	1	1	432
15	1	1	1	1	412
0	1	1	1	1	396
1	1	1	1	1	384
2	1	1	1	1	376
3	1	1	1	1	376
4	1	1	1	1	384
5	1	1	1	1	396
6	1	1	1	1	415
7	1	1	1	1	435
8	1	1	1	1	455
9	1	1	1	1	476
10	1	1	1	1	492
11	1	1	1	1	499
12	1	1	1	1	502
13	1	1	1	1	496
14	1	1	1	1	483
15	1	1	1	1	467
0	1	1	1	1	448
1	1	1	1	1	428
2	1	1	1	1	408
3	1	1	1	1	385
4	1	1	1	1	368
5	1	1	1	1	355
6	1	1	1	1	348
7	1	1	1	1	348
8	1	1	1	1	352
9	1	1	1	1	364
10	1	1	1	1	380
11	1	1	1	1	399
12	1	1	1	1	415
13	1	1	1	1	433
14	1	1	1	1	448
15	1	1	1	1	455
0	1	1	1	1	455
1	1	1	1	1	448
2	1	1	1	1	440
3	1	1	1	1	423
4	1	1	1	1	403
5	1	1	1	1	384
6	1	1	1	1	364
7	1	1	1	1	345
8	1	1	1	1	332
9	1	1	1	1	319
10	1	1	1	1	312
11	1	1	1	1	316
12	1	1	1	1	319
13	1	1	1	1	335
14	1	1	1	1	353
15	1	1	1	1	376
0	1	1	1	1	396
1	1	1	1	1	415
2	1	1	1	1	432
3	1	1	1	1	440
4	1	1	1	1	444
5	1	1	1	1	440
6	1	1	1	1	432
7	1	1	1	1	415
8	1	1	1	1	399
9	1	1	1	1	384
10	1	1	1	1	364
11	1	1	1	1	348
12	1	1	1	1	332
13	1	1	1	1	319
14	1	1	1	1	316
15	1	1	1	1	316
0	1	1	1	1	323
1	1	1	1	1	337
2	1	1	1	1	355
3	1	1	1	1	380
4	1	1	1	1	399
5	1	1	1	1	423
6	1	1	1	1	440
7	1	1	1	1	448
8	1	1	1	1	451
9	1	1	1	1	449
10	1	1	1	1	440
11	1	1	1	1	428
12	1	1	1	1	412
13	1	1	1	1	391
14	1	1	1	1	376
15	1	1	1	1	355
0	1	1	1	1	344
1	1	1	1	1	332
2	1	1	1	1	326
3	1	1	1	1	327
4	1	1	1	1	334
5	1	1	1	1	348
6	1	1	1	1	366
7	1	1	1	1	385
8	1	1	1	1	408
9	1	1	1	1	428
10	1	1	1	1	440
11	1	1	1	1	449
12	1	1	1	1	451
13	1	1	1	1	448
14	1	1	1	1	440
15	1	1	1	1	423
0	1	1	1	1	408
1	1	1	1	1	387
2	1	1	1	1	368
3	1	1	1	1	352
4	1	1	1	1	335
5	1	1	1	1	323
6	1	1	1	1	319
7	1	1	1	1	319
8	1	1	1	1	327
9	1	1	1	1	344
10	1	1	1	1	364
11	1	1	1	1	385
12	1	1	1	1	408
13	1	1	1	1	432
14	1	1	1	1	448
15	1	1	1	1	455
0	1	1	1	1	460
1	1	1	1	1	455
2	1	1	1	1	448
3	1	1	1	1	433
4	1	1	1	1	415
5	1	1	1	1	399
6	1	1	1	1	384
7	1	1	1	1	364
8	1	1	1	1	352
9	1	1	1	1	339
10	1	1	1	1	335
11	1	1	1	1	335
12	1	1	1	1	345
13	1	1	1	1	359
14	1	1	1	1	380
15	1	1	1	1	399
0	1	1	1	1	422
1	1	1	1	1	440
2	1	1	1	1	455
3	1	1	1	1	463
4	1	1	1	1	465
5	1	1	1	1	463
6	1	1	1	1	451
7	1	1	1	1	440
8	1	1	1	1	419
9	1	1	1	1	399
10	1	1	1	1	384
11	1	1	1	1	364
12	1	1	1	1	352
13	1	1	1	1	339
14	1	1	1	1	335
15	1	1	1	1	335
0	1	1	1	1	345
1	1	1	1	1	359
2	1	1	1	1	384
3	1	1	1	1	403
4	1	1	1	1	428
5	1	1	1	1	448
6	1	1	1	1	463
7	1	1	1	1	472
8	1	1	1	1	476
9	1	1	1	1	472
10	1	1	1	1	462
11	1	1	1	1	448
12	1	1	1	1	430
13	1	1	1	1	412
14	1	1	1	1	391
15	1	1	1	1	376
0	1	1	1	1	359
1	1	1	1	1	352
2	1	1	1	1	348
3	1	1	1	1	350
4	1	1	1	1	359
5	1	1	1	1	376
6	1	1	1	1	391
7	1	1	1	1	415
8	1	1	1	1	440
9	1	1	1	1	460
10	1	1	1	1	473
11	1	1	1	1	483
12	1	1	1	1	486
13	1	1	1	1	480
14	1	1	1	1	472
15	1	1	1	1	455
0	1	1	1	1	435
1	1	1	1	1	415
2	1	1	1	1	393
3	1	1	1	1	376
4	1	1	1	1	359
5	1	1	1	1	348
6	1	1	1	1	342
7	1	1	1	1	344
8	1	1	1	1	352
9	1	1	1	1	366
10	1	1	1	1	384
11	1	1	1	1	408
12	1	1	1	1	432
13	1	1	1	1	451
14	1	1	1	1	467
15	1	1	1	1	480
0	1	1	1	1	481
1	1	1	1	1	480
2	1	1	1	1	472
3	1	1	1	1	455
4	1	1	1	1	440
5	1	1	1	1	417
6	1	1	1	1	399
7	1	1	1	1	384
8	1	1	1	1	364
9	1	1	1	1	352
10	1	1	1	1	348
11	1	1	1	1	348
12	1	1	1	1	353
13	1	1	1	1	368
14	1	1	1	1	387
15	1	1	1	1	409
0	1	1	1	1	432
1	1	1	1	1	455
2	1	1	1	1	472
3	1	1	1	1	483
4	1	1	1	1	487
5	1	1	1	1	483
6	1	1	1	1	476
7	1	1	1	1	463
8	1	1	1	1	448
9	1	1	1	1	432
10	1	1	1	1	412
11	1	1	1	1	396
12	1	1	1	1	384
13	1	1	1	1	374
14	1	1	1	1	369
15	1	1	1	1	371
0	1	1	1	1	384
1	1	1	1	1	398
2	1	1	1	1	415
3	1	1	1	1	440
4	1	1	1	1	463
5	1	1	1	1	483
6	1	1	1	1	499
7	1	1	1	1	510
8	1	1	1	1	512
9	1	1	1	1	508
10	1	1	1	1	497
11	1	1	1	1	483
12	1	1	1	1	465
13	1	1	1	1	448
14	1	1	1	1	428
15	1	1	1	1	409
0	1	1	1	1	396
1	1	1	1	1	384
2	1	1	1	1	380
3	1	1	1	1	384
4	1	1	1	1	387
5	1	1	1	1	403
6	1	1	1	1	423
7	1	1	1	1	444
8	1	1	1	1	467
9	1	1	1	1	487
10	1	1	1	1	504
11	1	1	1	1	513
12	1	1	1	1	518
13	1	1	1	1	513
14	1	1	1	1	504
15	1	1	1	1	492
0	1	1	1	1	472
1	1	1	1	1	454
2	1	1	1	1	433
3	1	1	1	1	415
4	1	1	1	1	399
5	1	1	1	1	391
6	1	1	1	1	385
7	1	1	1	1	387
8	1	1	1	1	396
9	1	1	1	1	412
10	1	1	1	1	432
11	1	1	1	1	454
12	1	1	1	1	476
13	1	1	1	1	496
14	1	1	1	1	512
15	1	1	1	1	524
0	1	1	1	1	527
1	1	1	1	1	524
2	1	1	1	1	513
3	1	1	1	1	499
4	1	1	1	1	481
5	1	1	1	1	463
6	1	1	1	1	444
7	1	1	1	1	423
8	1	1	1	1	412
9	1	1	1	1	399
10	1	1	1	1	396
11	1	1	1	1	398
12	1	1	1	1	408
13	1	1	1	1	423
14	1	1	1	1	441
15	1	1	1	1	463
0	1	1	1	1	487
1	1	1	1	1	510
2	1	1	1	1	527
3	1	1	1	1	536
4	1	1	1	1	540
5	1	1	1	1	536
6	1	1	1	1	527
7	1	1	1	1	513
8	1	1	1	1	496
9	1	1	1	1	480
10	1	1	1	1	460
11	1	1	1	1	444
12	1	1	1	1	428
13	1	1	1	1	415
14	1	1	1	1	414
15	1	1	1	1	415
0	1	1	1	1	423
1	1	1	1	1	440
2	1	1	1	1	455
3	1	1	1	1	480
4	1	1	1	1	499
5	1	1	1	1	519
6	1	1	1	1	536
7	1	1	1	1	543
8	1	1	1	1	543
9	1	1	1	1	540
10	1	1	1	1	527
11	1	1	1	1	513
12	1	1	1	1	496
13	1	1	1	1	476
14	1	1	1	1	455
15	1	1	1	1	438
0	1	1	1	1	423
1	1	1	1	1	412
2	1	1	1	1	408
3	1	1	1	1	408
4	1	1	1	1	419
5	1	1	1	1	433
6	1	1	1	1	455
7	1	1	1	1	478
8	1	1	1	1	499
9	1	1	1	1	519
10	1	1	1	1	536
11	1	1	1	1	543
12	1	1	1	1	550
13	1	1	1	1	543
14	1	1	1	1	536
15	1	1	1	1	519
0	1	1	1	1	504
1	1	1	1	1	483
2	1	1	1	1	463
3	1	1	1	1	448
4	1	1	1	1	432
5	1	1	1	1	419
6	1	1	1	1	415
7	1	1	1	1	415
8	1	1	1	1	428
9	1	1	1	1	441
10	1	1	1	1	463
11	1	1	1	1	483
12	1	1	1	1	508
13	1	1	1	1	527
14	1	1	1	1	543
15	1	1	1	1	556
0	1	1	1	1	560
1	1	1	1	1	560
2	1	1	1	1	551
3	1	1	1	1	536
4	1	1	1	1	519
5	1	1	1	1	504
6	1	1	1	1	483
7	1	1	1	1	467
8	1	1	1	1	455
9	1	1	1	1	448
10	1	1	1	1	444
11	1	1	1	1	448
12	1	1	1	1	460
13	1	1	1	1	478
14	1	1	1	1	499
15	1	1	1	1	527
0	1	1	1	1	556
1	1	1	1	1	583
2	1	1	1	1	608
3	1	1	1	1	624
4	1	1	1	1	633
5	1	1	1	1	639
6	1	1	1	1	639
7	1	1	1	1	632
8	1	1	1	1	624
9	1	1	1	1	615
10	1	1	1	1	604
11	1	1	1	1	591
12	1	1	1	1	588
13	1	1	1	1	583
14	1	1	1	1	583
15	1	1	1	1	591
0	1	1	1	1	604
1	1	1	1	1	620
2	1	1	1	1	639
3	1	1	1	1	655
4	1	1	1	1	671
5	1	1	1	1	684
6	1	1	1	1	688
7	1	1	1	1	679
8	1	1	1	1	668
9	1	1	1	1	639
10	1	1	1	1	615
11	1	1	1	1	575
12	1	1	1	1	537
13	1	1	1	1	496
14	1	1	1	1	451
15	1	1	1	1	409
0	1	1	1	1	371
1	1	1	1	1	339
2	1	1	1	1	316
3	1	1	1	1	300
4	1	1	1	1	294
5	1	1	1	1	295
6	1	1	1	1	307
7	1	1	1	1	323
8	1	1	1	1	345
9	1	1	1	1	368
10	1	1	1	1	387
11	1	1	1	1	403
12	1	1	1	1	415
13	1	1	1	1	419
14	1	1	1	1	419
15	1	1	1	1	415
0	1	1	1	1	408
1	1	1	1	1	396
2	1	1	1	1	384
3	1	1	1	1	374
4	1	1	1	1	366
5	1	1	1	1	359
6	1	1	1	1	359
7	1	1	1	1	368
8	1	1	1	1	384
9	1	1	1	1	399
10	1	1	1	1	422
11	1	1	1	1	448
12	1	1	1	1	472
13	1	1	1	1	494
14	1	1	1	1	510
15	1	1	1	1	519
0	1	1	1	1	524
1	1	1	1	1	519
2	1	1	1	1	508
3	1	1	1	1	494
4	1	1	1	1	473
5	1	1	1	1	454
6	1	1	1	1	432
7	1	1	1	1	414
8	1	1	1	1	398
9	1	1	1	1	385
10	1	1	1	1	384
11	1	1	1	1	384
12	1	1	1	1	391
13	1	1	1	1	403
14	1	1	1	1	423
15	1	1	1	1	448
0	1	1	1	1	472
1	1	1	1	1	492
2	1	1	1	1	508
3	1	1	1	1	518
4	1	1	1	1	519
5	1	1	1	1	515
6	1	1	1	1	504
7	1	1	1	1	492
8	1	1	1	1	472
9	1	1	1	1	451
10	1	1	1	1	432
11	1	1	1	1	414
12	1	1	1	1	398
13	1	1	1	1	385
14	1	1	1	1	384
15	1	1	1	1	384
0	1	1	1	1	387
1	1	1	1	1	399
2	1	1	1	1	419
3	1	1	1	1	440
4	1	1	1	1	463
5	1	1	1	1	481
6	1	1	1	1	496
7	1	1	1	1	504
8	1	1	1	1	508
9	1	1	1	1	504
10	1	1	1	1	492
11	1	1	1	1	476
12	1	1	1	1	460
13	1	1	1	1	440
14	1	1	1	1	419
15	1	1	1	1	401
0	1	1	1	1	387
1	1	1	1	1	377
2	1	1	1	1	374
3	1	1	1	1	376
4	1	1	1	1	384
5	1	1	1	1	398
6	1	1	1	1	415
7	1	1	1	1	440
8	1	1	1	1	460
9	1	1	1	1	480
10	1	1	1	1	496
11	1	1	1	1	504
12	1	1	1	1	508
13	1	1	1	1	504
14	1	1	1	1	496
15	1	1	1	1	481
0	1	1	1	1	463
1	1	1	1	1	448
2	1	1	1	1	430
3	1	1	1	1	412
4	1	1	1	1	398
5	1	1	1	1	387
6	1	1	1	1	384
7	1	1	1	1	384
8	1	1	1	1	391
9	1	1	1	1	408
10	1	1	1	1	425
11	1	1	1	1	448
12	1	1	1	1	470
13	1	1	1	1	487
14	1	1	1	1	504
15	1	1	1	1	512
0	1	1	1	1	513
1	1	1	1	1	510
2	1	1	1	1	499
3	1	1	1	1	486
4	1	1	1	1	467
5	1	1	1	1	448
6	1	1	1	1	432
7	1	1	1	1	414
8	1	1	1	1	399
9	1	1	1	1	390
10	1	1	1	1	384
11	1	1	1	1	387
12	1	1	1	1	398
13	1	1	1	1	412
14	1	1	1	1	432
15	1	1	1	1	454
0	1	1	1	1	476
1	1	1	1	1	496
2	1	1	1	1	510
3	1	1	1	1	519
4	1	1	1	1	519
5	1	1	1	1	515
6	1	1	1	1	504
7	1	1	1	1	492
8	1	1	1	1	473
9	1	1	1	1	455
10	1	1	1	1	435
11	1	1	1	1	419
12	1	1	1	1	408
13	1	1	1	1	398
14	1	1	1	1	391
15	1	1	1	1	398
0	1	1	1	1	408
1	1	1	1	1	423
2	1	1	1	1	440
3	1	1	1	1	463
4	1	1	1	1	483
5	1	1	1	1	504
6	1	1	1	1	518
7	1	1	1	1	527
8	1	1	1	1	527
9	1	1	1	1	524
10	1	1	1	1	513
11	1	1	1	1	499
12	1	1	1	1	483
13	1	1	1	1	463
14	1	1	1	1	448
15	1	1	1	1	432
0	1	1	1	1	419
1	1	1	1	1	412
2	1	1	1	1	408
3	1	1	1	1	412
4	1	1	1	1	423
5	1	1	1	1	440
6	1	1	1	1	460
7	1	1	1	1	481
8	1	1	1	1	504
9	1	1	1	1	526
10	1	1	1	1	542
11	1	1	1	1	551
12	1	1	1	1	551
13	1	1	1	1	550
14	1	1	1	1	540
15	1	1	1	1	526
0	1	1	1	1	508
1	1	1	1	1	487
2	1	1	1	1	472
3	1	1	1	1	451
4	1	1	1	1	435
5	1	1	1	1	423
6	1	1	1	1	419
7	1	1	1	1	423
8	1	1	1	1	432
9	1	1	1	1	444
10	1	1	1	1	463
11	1	1	1	1	486
12	1	1	1	1	508
13	1	1	1	1	527
14	1	1	1	1	543
15	1	1	1	1	551
0	1	1	1	1	553
1	1	1	1	1	551
2	1	1	1	1	540
3	1	1	1	1	527
4	1	1	1	1	510
5	1	1	1	1	489
6	1	1	1	1	472
7	1	1	1	1	455
8	1	1	1	1	440
9	1	1	1	1	432
10	1	1	1	1	428
11	1	1	1	1	432
12	1	1	1	1	440
13	1	1	1	1	455
14	1	1	1	1	473
15	1	1	1	1	496
0	1	1	1	1	519
1	1	1	1	1	540
2	1	1	1	1	553
3	1	1	1	1	561
4	1	1	1	1	563
5	1	1	1	1	560
6	1	1	1	1	550
7	1	1	1	1	536
8	1	1	1	1	515
9	1	1	1	1	496
10	1	1	1	1	476
11	1	1	1	1	455
12	1	1	1	1	444
13	1	1	1	1	433
14	1	1	1	1	430
15	1	1	1	1	432
0	1	1	1	1	440
1	1	1	1	1	455
2	1	1	1	1	476
3	1	1	1	1	496
4	1	1	1	1	519
5	1	1	1	1	540
6	1	1	1	1	551
7	1	1	1	1	561
8	1	1	1	1	563
9	1	1	1	1	560
10	1	1	1	1	547
11	1	1	1	1	531
12	1	1	1	1	515
13	1	1	1	1	496
14	1	1	1	1	478
15	1	1	1	1	460
0	1	1	1	1	448
1	1	1	1	1	435
2	1	1	1	1	432
3	1	1	1	1	433
4	1	1	1	1	444
5	1	1	1	1	460
6	1	1	1	1	480
7	1	1	1	1	499
8	1	1	1	1	519
9	1	1	1	1	540
10	1	1	1	1	551
11	1	1	1	1	560
12	1	1	1	1	560
13	1	1	1	1	551
14	1	1	1	1	540
15	1	1	1	1	524
0	1	1	1	1	504
1	1	1	1	1	480
2	1	1	1	1	460
3	1	1	1	1	440
4	1	1	1	1	423
5	1	1	1	1	412
6	1	1	1	1	403
7	1	1	1	1	406
8	1	1	1	1	412
9	1	1	1	1	423
10	1	1	1	1	441
11	1	1	1	1	462
12	1	1	1	1	480
13	1	1	1	1	497
14	1	1	1	1	511
15	1	1	1	1	515
0	1	1	1	1	515
1	1	1	1	1	508
2	1	1	1	1	496
3	1	1	1	1	478
4	1	1	1	1	455
5	1	1	1	1	433
6	1	1	1	1	412
7	1	1	1	1	391
8	1	1	1	1	376
9	1	1	1	1	359
10	1	1	1	1	355
11	1	1	1	1	355
12	1	1	1	1	359
13	1	1	1	1	376
14	1	1	1	1	391
15	1	1	1	1	412
0	1	1	1	1	432
1	1	1	1	1	451
2	1	1	1	1	463
3	1	1	1	1	472
4	1	1	1	1	472
5	1	1	1	1	467
6	1	1	1	1	455
7	1	1	1	1	440
8	1	1	1	1	419
9	1	1	1	1	399
10	1	1	1	1	380
11	1	1	1	1	359
12	1	1	1	1	344
13	1	1	1	1	332
14	1	1	1	1	326
15	1	1	1	1	326
0	1	1	1	1	334
1	1	1	1	1	348
2	1	1	1	1	366
3	1	1	1	1	385
4	1	1	1	1	408
5	1	1	1	1	428
6	1	1	1	1	444
7	1	1	1	1	449
8	1	1	1	1	451
9	1	1	1	1	448
10	1	1	1	1	435
11	1	1	1	1	419
12	1	1	1	1	399
13	1	1	1	1	384
14	1	1	1	1	359
15	1	1	1	1	344
0	1	1	1	1	327
1	1	1	1	1	316
2	1	1	1	1	312
3	1	1	1	1	316
4	1	1	1	1	323
5	1	1	1	1	339
6	1	1	1	1	359
7	1	1	1	1	384
8	1	1	1	1	408
9	1	1	1	1	432
10	1	1	1	1	448
11	1	1	1	1	455
12	1	1	1	1	460
13	1	1	1	1	455
14	1	1	1	1	448
15	1	1	1	1	432
0	1	1	1	1	414
1	1	1	1	1	391
2	1	1	1	1	376
3	1	1	1	1	358
4	1	1	1	1	344
5	1	1	1	1	332
6	1	1	1	1	327
7	1	1	1	1	327
8	1	1	1	1	335
9	1	1	1	1	352
10	1	1	1	1	368
11	1	1	1	1	391
12	1	1	1	1	412
13	1	1	1	1	432
14	1	1	1	1	448
15	1	1	1	1	455
0	1	1	1	1	460
1	1	1	1	1	455
2	1	1	1	1	448
3	1	1	1	1	433
4	1	1	1	1	415
5	1	1	1	1	399
6	1	1	1	1	384
7	1	1	1	1	368
8	1	1	1	1	352
9	1	1	1	1	342
10	1	1	1	1	335
11	1	1	1	1	335
12	1	1	1	1	344
13	1	1	1	1	355
14	1	1	1	1	376
15	1	1	1	1	396
0	1	1	1	1	415
1	1	1	1	1	435
2	1	1	1	1	448
3	1	1	1	1	455
4	1	1	1	1	460
5	1	1	1	1	455
6	1	1	1	1	448
7	1	1	1	1	432
8	1	1	1	1	415
9	1	1	1	1	398
10	1	1	1	1	380
11	1	1	1	1	364
12	1	1	1	1	350
13	1	1	1	1	339
14	1	1	1	1	335
15	1	1	1	1	339
0	1	1	1	1	350
1	1	1	1	1	364
2	1	1	1	1	384
3	1	1	1	1	408
4	1	1	1	1	430
5	1	1	1	1	448
6	1	1	1	1	463
7	1	1	1	1	472
8	1	1	1	1	476
9	1	1	1	1	472
10	1	1	1	1	462
11	1	1	1	1	448
12	1	1	1	1	430
13	1	1	1	1	412
14	1	1	1	1	391
15	1	1	1	1	376
0	1	1	1	1	364
1	1	1	1	1	352
2	1	1	1	1	352
3	1	1	1	1	353
4	1	1	1	1	364
5	1	1	1	1	380
6	1	1	1	1	399
7	1	1	1	1	422
8	1	1	1	1	444
9	1	1	1	1	463
10	1	1	1	1	480
11	1	1	1	1	487
12	1	1	1	1	487
13	1	1	1	1	483
14	1	1	1	1	473
15	1	1	1	1	460
0	1	1	1	1	440
1	1	1	1	1	423
2	1	1	1	1	403
3	1	1	1	1	384
4	1	1	1	1	371
5	1	1	1	1	359
6	1	1	1	1	355
7	1	1	1	1	359
8	1	1	1	1	368
9	1	1	1	1	384
10	1	1	1	1	401
11	1	1	1	1	423
12	1	1	1	1	448
13	1	1	1	1	463
14	1	1	1	1	480
15	1	1	1	1	487
0	1	1	1	1	492
1	1	1	1	1	487
2	1	1	1	1	476
3	1	1	1	1	462
4	1	1	1	1	444
5	1	1	1	1	423
6	1	1	1	1	408
7	1	1	1	1	391
8	1	1	1	1	376
9	1	1	1	1	368
10	1	1	1	1	366
11	1	1	1	1	368
12	1	1	1	1	380
13	1	1	1	1	396
14	1	1	1	1	415
15	1	1	1	1	440
0	1	1	1	1	460
1	1	1	1	1	480
2	1	1	1	1	494
3	1	1	1	1	502
4	1	1	1	1	504
5	1	1	1	1	496
6	1	1	1	1	487
7	1	1	1	1	472
8	1	1	1	1	455
9	1	1	1	1	435
10	1	1	1	1	417
11	1	1	1	1	401
12	1	1	1	1	390
13	1	1	1	1	384
14	1	1	1	1	380
15	1	1	1	1	384
0	1	1	1	1	391
1	1	1	1	1	412
2	1	1	1	1	432
3	1	1	1	1	455
4	1	1	1	1	478
5	1	1	1	1	497
6	1	1	1	1	512
7	1	1	1	1	521
8	1	1	1	1	524
9	1	1	1	1	519
10	1	1	1	1	511
11	1	1	1	1	496
12	1	1	1	1	480
13	1	1	1	1	462
14	1	1	1	1	444
15	1	1	1	1	428
0	1	1	1	1	414
1	1	1	1	1	403
2	1	1	1	1	399
3	1	1	1	1	403
4	1	1	1	1	414
5	1	1	1	1	430
6	1	1	1	1	449
7	1	1	1	1	472
8	1	1	1	1	494
9	1	1	1	1	513
10	1	1	1	1	527
11	1	1	1	1	536
12	1	1	1	1	540
13	1	1	1	1	536
14	1	1	1	1	524
15	1	1	1	1	510
0	1	1	1	1	492
1	1	1	1	1	472
2	1	1	1	1	455
3	1	1	1	1	440
4	1	1	1	1	423
5	1	1	1	1	415
6	1	1	1	1	414
7	1	1	1	1	415
8	1	1	1	1	428
9	1	1	1	1	444
10	1	1	1	1	463
11	1	1	1	1	487
12	1	1	1	1	508
13	1	1	1	1	527
14	1	1	1	1	542
15	1	1	1	1	551
0	1	1	1	1	551
1	1	1	1	1	547
2	1	1	1	1	536
3	1	1	1	1	524
4	1	1	1	1	504
5	1	1	1	1	487
6	1	1	1	1	467
7	1	1	1	1	451
8	1	1	1	1	440
9	1	1	1	1	430
10	1	1	1	1	425
11	1	1	1	1	430
12	1	1	1	1	440
13	1	1	1	1	455
14	1	1	1	1	476
15	1	1	1	1	497
0	1	1	1	1	519
1	1	1	1	1	542
2	1	1	1	1	556
3	1	1	1	1	563
4	1	1	1	1	568
5	1	1	1	1	563
6	1	1	1	1	551
7	1	1	1	1	540
8	1	1	1	1	519
9	1	1	1	1	504
10	1	1	1	1	483
11	1	1	1	1	463
12	1	1	1	1	451
13	1	1	1	1	440
14	1	1	1	1	435
15	1	1	1	1	435
0	1	1	1	1	444
1	1	1	1	1	455
2	1	1	1	1	473
3	1	1	1	1	494
4	1	1	1	1	512
5	1	1	1	1	529
6	1	1	1	1	543
7	1	1	1	1	550
8	1	1	1	1	550
9	1	1	1	1	543
10	1	1	1	1	531
11	1	1	1	1	515
12	1	1	1	1	496
13	1	1	1	1	478
14	1	1	1	1	455
15	1	1	1	1	440
0	1	1	1	1	425
1	1	1	1	1	415
2	1	1	1	1	412
3	1	1	1	1	415
4	1	1	1	1	423
5	1	1	1	1	440
6	1	1	1	1	455
7	1	1	1	1	476
8	1	1	1	1	496
9	1	1	1	1	513
10	1	1	1	1	527
11	1	1	1	1	531
12	1	1	1	1	531
13	1	1	1	1	526
14	1	1	1	1	512
15	1	1	1	1	496
0	1	1	1	1	476
1	1	1	1	1	455
2	1	1	1	1	433
3	1	1	1	1	415
4	1	1	1	1	399
5	1	1	1	1	387
6	1	1	1	1	384
7	1	1	1	1	384
8	1	1	1	1	391
9	1	1	1	1	408
10	1	1	1	1	423
11	1	1	1	1	448
12	1	1	1	1	467
13	1	1	1	1	487
14	1	1	1	1	502
15	1	1	1	1	510
0	1	1	1	1	511
1	1	1	1	1	504
2	1	1	1	1	496
3	1	1	1	1	480
4	1	1	1	1	463
5	1	1	1	1	444
6	1	1	1	1	428
7	1	1	1	1	412
8	1	1	1	1	398
9	1	1	1	1	387
10	1	1	1	1	384
11	1	1	1	1	387
12	1	1	1	1	396
13	1	1	1	1	412
14	1	1	1	1	430
15	1	1	1	1	449
0	1	1	1	1	472
1	1	1	1	1	487
2	1	1	1	1	502
3	1	1	1	1	508
4	1	1	1	1	508
5	1	1	1	1	504
6	1	1	1	1	492
7	1	1	1	1	476
8	1	1	1	1	460
9	1	1	1	1	440
10	1	1	1	1	423
11	1	1	1	1	408
12	1	1	1	1	391
13	1	1	1	1	384
14	1	1	1	1	384
15	1	1	1	1	384
0	1	1	1	1	396
1	1	1	1	1	412
2	1	1	1	1	432
3	1	1	1	1	455
4	1	1	1	1	480
5	1	1	1	1	504
6	1	1	1	1	519
7	1	1	1	1	534
8	1	1	1	1	540
9	1	1	1	1	540
10	1	1	1	1	536
11	1	1	1	1	527
12	1	1	1	1	515
13	1	1	1	1	505
14	1	1	1	1	496
15	1	1	1	1	487
0	1	1	1	1	483
1	1	1	1	1	483
2	1	1	1	1	487
3	1	1	1	1	504
4	1	1	1	1	521
5	1	1	1	1	547
6	1	1	1	1	575
7	1	1	1	1	608
8	1	1	1	1	639
9	1	1	1	1	664
10	1	1	1	1	688
11	1	1	1	1	700
12	1	1	1	1	705
13	1	1	1	1	704
14	1	1	1	1	688
15	1	1	1	1	668
0	1	1	1	1	639
1	1	1	1	1	609
2	1	1	1	1	575
3	1	1	1	1	542
4	1	1	1	1	508
5	1	1	1	1	480
6	1	1	1	1	451
7	1	1	1	1	432
8	1	1	1	1	417
9	1	1	1	1	412
10	1	1	1	1	408
11	1	1	1	1	409
12	1	1	1	1	412
13	1	1	1	1	415
14	1	1	1	1	414
15	1	1	1	1	409
0	1	1	1	1	401
1	1	1	1	1	391
2	1	1	1	1	376
3	1	1	1	1	359
4	1	1	1	1	345
5	1	1	1	1	332
6	1	1	1	1	318
7	1	1	1	1	307
8	1	1	1	1	300
9	1	1	1	1	300
10	1	1	1	1	304
11	1	1	1	1	316
12	1	1	1	1	334
13	1	1	1	1	355
14	1	1	1	1	384
15	1	1	1	1	415
0	1	1	1	1	448
1	1	1	1	1	473
2	1	1	1	1	496
3	1	1	1	1	512
4	1	1	1	1	519
5	1	1	1	1	521
6	1	1	1	1	518
7	1	1	1	1	508
8	1	1	1	1	494
9	1	1	1	1	478
10	1	1	1	1	462
11	1	1	1	1	448
12	1	1	1	1	432
13	1	1	1	1	422
14	1	1	1	1	415
15	1	1	1	1	419
0	1	1	1	1	428
1	1	1	1	1	440
2	1	1	1	1	460
3	1	1	1	1	480
4	1	1	1	1	499
5	1	1	1	1	518
6	1	1	1	1	531
7	1	1	1	1	537
8	1	1	1	1	540
9	1	1	1	1	531
10	1	1	1	1	521
11	1	1	1	1	508
12	1	1	1	1	487
13	1	1	1	1	472
14	1	1	1	1	451
15	1	1	1	1	435
0	1	1	1	1	423
1	1	1	1	1	414
2	1	1	1	1	409
3	1	1	1	1	414
4	1	1	1	1	423
5	1	1	1	1	440
6	1	1	1	1	460
7	1	1	1	1	481
8	1	1	1	1	504
9	1	1	1	1	524
10	1	1	1	1	537
11	1	1	1	1	543
12	1	1	1	1	543
13	1	1	1	1	542
14	1	1	1	1	527
15	1	1	1	1	513
0	1	1	1	1	496
1	1	1	1	1	478
2	1	1	1	1	455
3	1	1	1	1	440
4	1	1	1	1	428
5	1	1	1	1	415
6	1	1	1	1	415
7	1	1	1	1	419
8	1	1	1	1	430
9	1	1	1	1	448
10	1	1	1	1	465
11	1	1	1	1	487
12	1	1	1	1	511
13	1	1	1	1	531
14	1	1	1	1	547
15	1	1	1	1	556
0	1	1	1	1	558
1	1	1	1	1	551
2	1	1	1	1	542
3	1	1	1	1	526
4	1	1	1	1	508
5	1	1	1	1	487
6	1	1	1	1	467
7	1	1	1	1	449
8	1	1	1	1	435
9	1	1	1	1	423
10	1	1	1	1	419
11	1	1	1	1	423
12	1	1	1	1	432
13	1	1	1	1	448
14	1	1	1	1	467
15	1	1	1	1	487
0	1	1	1	1	511
1	1	1	1	1	529
2	1	1	1	1	543
3	1	1	1	1	551
4	1	1	1	1	556
5	1	1	1	1	551
6	1	1	1	1	543
7	1	1	1	1	529
8	1	1	1	1	513
9	1	1	1	1	497
10	1	1	1	1	480
11	1	1	1	1	465
12	1	1	1	1	455
13	1	1	1	1	448
14	1	1	1	1	444
15	1	1	1	1	448
0	1	1	1	1	460
1	1	1	1	1	476
2	1	1	1	1	494
3	1	1	1	1	515
4	1	1	1	1	536
5	1	1	1	1	551
6	1	1	1	1	563
7	1	1	1	1	569
8	1	1	1	1	568
9	1	1	1	1	561
10	1	1	1	1	547
11	1	1	1	1	531
12	1	1	1	1	512
13	1	1	1	1	492
14	1	1	1	1	472
15	1	1	1	1	455
0	1	1	1	1	441
1	1	1	1	1	432
2	1	1	1	1	430
3	1	1	1	1	432
4	1	1	1	1	444
5	1	1	1	1	460
6	1	1	1	1	480
7	1	1	1	1	504
8	1	1	1	1	524
9	1	1	1	1	542
10	1	1	1	1	556
11	1	1	1	1	561
12	1	1	1	1	561
13	1	1	1	1	556
14	1	1	1	1	543
15	1	1	1	1	527
0	1	1	1	1	508
1	1	1	1	1	487
2	1	1	1	1	472
3	1	1	1	1	451
4	1	1	1	1	440
5	1	1	1	1	430
6	1	1	1	1	428
7	1	1	1	1	432
8	1	1	1	1	440
9	1	1	1	1	457
10	1	1	1	1	480
11	1	1	1	1	504
12	1	1	1	1	526
13	1	1	1	1	543
14	1	1	1	1	560
15	1	1	1	1	569
0	1	1	1	1	572
1	1	1	1	1	568
2	1	1	1	1	558
3	1	1	1	1	543
4	1	1	1	1	526
5	1	1	1	1	505
6	1	1	1	1	487
7	1	1	1	1	472
8	1	1	1	1	455
9	1	1	1	1	448
10	1	1	1	1	444
11	1	1	1	1	448
12	1	1	1	1	455
13	1	1	1	1	472
14	1	1	1	1	492
15	1	1	1	1	513
0	1	1	1	1	536
1	1	1	1	1	556
2	1	1	1	1	568
3	1	1	1	1	575
4	1	1	1	1	575
5	1	1	1	1	572
6	1	1	1	1	560
7	1	1	1	1	543
8	1	1	1	1	526
9	1	1	1	1	504
10	1	1	1	1	487
11	1	1	1	1	470
12	1	1	1	1	455
13	1	1	1	1	448
14	1	1	1	1	441
15	1	1	1	1	448
0	1	1	1	1	455
1	1	1	1	1	472
2	1	1	1	1	492
3	1	1	1	1	512
4	1	1	1	1	536
5	1	1	1	1	553
6	1	1	1	1	568
7	1	1	1	1	575
8	1	1	1	1	575
9	1	1	1	1	574
10	1	1	1	1	563
11	1	1	1	1	547
12	1	1	1	1	531
13	1	1	1	1	512
14	1	1	1	1	496
15	1	1	1	1	480
0	1	1	1	1	463
1	1	1	1	1	455
2	1	1	1	1	451
3	1	1	1	1	455
4	1	1	1	1	463
5	1	1	1	1	480
6	1	1	1	1	496
7	1	1	1	1	518
8	1	1	1	1	536
9	1	1	1	1	553
10	1	1	1	1	568
11	1	1	1	1	572
12	1	1	1	1	572
13	1	1	1	1	563
14	1	1	1	1	551
15	1	1	1	1	537
0	1	1	1	1	519
1	1	1	1	1	504
2	1	1	1	1	483
3	1	1	1	1	467
4	1	1	1	1	455
5	1	1	1	1	448
6	1	1	1	1	448
7	1	1	1	1	451
8	1	1	1	1	463
9	1	1	1	1	480
10	1	1	1	1	499
11	1	1	1	1	519
12	1	1	1	1	542
13	1	1	1	1	560
14	1	1	1	1	572
15	1	1	1	1	575
0	1	1	1	1	575
1	1	1	1	1	568
2	1	1	1	1	556
3	1	1	1	1	540
4	1	1	1	1	519
5	1	1	1	1	499
6	1	1	1	1	480
7	1	1	1	1	460
8	1	1	1	1	448
9	1	1	1	1	433
10	1	1	1	1	430
11	1	1	1	1	432
12	1	1	1	1	440
13	1	1	1	1	454
14	1	1	1	1	472
15	1	1	1	1	492
0	1	1	1	1	512
1	1	1	1	1	527
2	1	1	1	1	542
3	1	1	1	1	547
4	1	1	1	1	543
5	1	1	1	1	537
6	1	1	1	1	526
7	1	1	1	1	508
8	1	1	1	1	487
9	1	1	1	1	463
10	1	1	1	1	444
11	1	1	1	1	423
12	1	1	1	1	408
13	1	1	1	1	398
14	1	1	1	1	391
15	1	1	1	1	391
0	1	1	1	1	399
1	1	1	1	1	412
2	1	1	1	1	430
3	1	1	1	1	448
4	1	1	1	1	465
5	1	1	1	1	481
6	1	1	1	1	494
7	1	1	1	1	496
8	1	1	1	1	496
9	1	1	1	1	487
10	1	1	1	1	476
11	1	1	1	1	455
12	1	1	1	1	440
13	1	1	1	1	415
14	1	1	1	1	396
15	1	1	1	1	377
0	1	1	1	1	359
1	1	1	1	1	352
2	1	1	1	1	344
3	1	1	1	1	348
4	1	1	1	1	353
5	1	1	1	1	368
6	1	1	1	1	385
7	1	1	1	1	408
8	1	1	1	1	425
9	1	1	1	1	444
10	1	1	1	1	455
11	1	1	1	1	463
12	1	1	1	1	463
13	1	1	1	1	460
14	1	1	1	1	448
15	1	1	1	1	432
0	1	1	1	1	415
1	1	1	1	1	396
2	1	1	1	1	377
3	1	1	1	1	359
4	1	1	1	1	348
5	1	1	1	1	339
6	1	1	1	1	335
7	1	1	1	1	339
8	1	1	1	1	350
9	1	1	1	1	364
10	1	1	1	1	384
11	1	1	1	1	408
12	1	1	1	1	428
13	1	1	1	1	448
14	1	1	1	1	462
15	1	1	1	1	472
0	1	1	1	1	472
1	1	1	1	1	465
2	1	1	1	1	455
3	1	1	1	1	441
4	1	1	1	1	423
5	1	1	1	1	408
6	1	1	1	1	387
7	1	1	1	1	374
8	1	1	1	1	359
9	1	1	1	1	352
10	1	1	1	1	352
11	1	1	1	1	353
12	1	1	1	1	364
13	1	1	1	1	384
14	1	1	1	1	399
15	1	1	1	1	423
0	1	1	1	1	448
1	1	1	1	1	465
2	1	1	1	1	480
3	1	1	1	1	487
4	1	1	1	1	487
5	1	1	1	1	483
6	1	1	1	1	472
7	1	1	1	1	455
8	1	1	1	1	440
9	1	1	1	1	419
10	1	1	1	1	401
11	1	1	1	1	385
12	1	1	1	1	376
13	1	1	1	1	366
14	1	1	1	1	364
15	1	1	1	1	368
0	1	1	1	1	384
1	1	1	1	1	398
2	1	1	1	1	415
3	1	1	1	1	440
4	1	1	1	1	463
5	1	1	1	1	483
6	1	1	1	1	496
7	1	1	1	1	504
8	1	1	1	1	508
9	1	1	1	1	504
10	1	1	1	1	492
11	1	1	1	1	478
12	1	1	1	1	460
13	1	1	1	1	441
14	1	1	1	1	423
15	1	1	1	1	408
0	1	1	1	1	396
1	1	1	1	1	387
2	1	1	1	1	384
3	1	1	1	1	387
4	1	1	1	1	399
5	1	1	1	1	414
6	1	1	1	1	432
7	1	1	1	1	454
8	1	1	1	1	473
9	1	1	1	1	492
10	1	1	1	1	504
11	1	1	1	1	511
12	1	1	1	1	511
13	1	1	1	1	504
14	1	1	1	1	494
15	1	1	1	1	480
0	1	1	1	1	460
1	1	1	1	1	444
2	1	1	1	1	423
3	1	1	1	1	412
4	1	1	1	1	399
5	1	1	1	1	391
6	1	1	1	1	391
7	1	1	1	1	396
8	1	1	1	1	408
9	1	1	1	1	423
10	1	1	1	1	448
11	1	1	1	1	467
12	1	1	1	1	487
13	1	1	1	1	508
14	1	1	1	1	519
15	1	1	1	1	527
0	1	1	1	1	527
1	1	1	1	1	519
2	1	1	1	1	510
3	1	1	1	1	494
4	1	1	1	1	476
5	1	1	1	1	455
6	1	1	1	1	440
7	1	1	1	1	419
8	1	1	1	1	408
9	1	1	1	1	398
10	1	1	1	1	391
11	1	1	1	1	398
12	1	1	1	1	408
13	1	1	1	1	423
14	1	1	1	1	444
15	1	1	1	1	463
0	1	1	1	1	487
1	1	1	1	1	504
2	1	1	1	1	519
3	1	1	1	1	526
4	1	1	1	1	526
5	1	1	1	1	519
6	1	1	1	1	508
7	1	1	1	1	492
8	1	1	1	1	472
9	1	1	1	1	454
10	1	1	1	1	433
11	1	1	1	1	415
12	1	1	1	1	403
13	1	1	1	1	396
14	1	1	1	1	391
15	1	1	1	1	396
0	1	1	1	1	406
1	1	1	1	1	422
2	1	1	1	1	440
3	1	1	1	1	463
4	1	1	1	1	483
5	1	1	1	1	504
6	1	1	1	1	518
7	1	1	1	1	524
8	1	1	1	1	524
9	1	1	1	1	519
10	1	1	1	1	508
11	1	1	1	1	492
12	1	1	1	1	476
13	1	1	1	1	455
14	1	1	1	1	440
15	1	1	1	1	422
0	1	1	1	1	408
1	1	1	1	1	399
2	1	1	1	1	396
3	1	1	1	1	399
4	1	1	1	1	408
5	1	1	1	1	423
6	1	1	1	1	444
7	1	1	1	1	463
8	1	1	1	1	486
9	1	1	1	1	504
10	1	1	1	1	513
11	1	1	1	1	519
12	1	1	1	1	519
13	1	1	1	1	511
14	1	1	1	1	497
15	1	1	1	1	481
0	1	1	1	1	463
1	1	1	1	1	444
2	1	1	1	1	423
3	1	1	1	1	408
4	1	1	1	1	391
5	1	1	1	1	384
6	1	1	1	1	384
7	1	1	1	1	385
8	1	1	1	1	396
9	1	1	1	1	412
10	1	1	1	1	432
11	1	1	1	1	455
12	1	1	1	1	476
13	1	1	1	1	494
14	1	1	1	1	505
15	1	1	1	1	512
0	1	1	1	1	511
1	1	1	1	1	504
2	1	1	1	1	492
3	1	1	1	1	473
4	1	1	1	1	455
5	1	1	1	1	435
6	1	1	1	1	415
7	1	1	1	1	399
8	1	1	1	1	387
9	1	1	1	1	380
10	1	1	1	1	377
11	1	1	1	1	384
12	1	1	1	1	391
13	1	1	1	1	412
14	1	1	1	1	432
15	1	1	1	1	455
0	1	1	1	1	476
1	1	1	1	1	496
2	1	1	1	1	508
3	1	1	1	1	513
4	1	1	1	1	513
5	1	1	1	1	508
6	1	1	1	1	496
7	1	1	1	1	480
8	1	1	1	1	460
9	1	1	1	1	440
10	1	1	1	1	422
11	1	1	1	1	403
12	1	1	1	1	391
13	1	1	1	1	384
14	1	1	1	1	380
15	1	1	1	1	384
0	1	1	1	1	391
1	1	1	1	1	409
2	1	1	1	1	432
3	1	1	1	1	451
4	1	1	1	1	473
5	1	1	1	1	492
6	1	1	1	1	505
7	1	1	1	1	512
8	1	1	1	1	512
9	1	1	1	1	505
10	1	1	1	1	494
11	1	1	1	1	480
12	1	1	1	1	460
13	1	1	1	1	440
14	1	1	1	1	419
15	1	1	1	1	403
0	1	1	1	1	390
1	1	1	1	1	384
2	1	1	1	1	376
3	1	1	1	1	384
4	1	1	1	1	391
5	1	1	1	1	408
6	1	1	1	1	428
7	1	1	1	1	449
8	1	1	1	1	472
9	1	1	1	1	492
10	1	1	1	1	504
11	1	1	1	1	511
12	1	1	1	1	511
13	1	1	1	1	504
14	1	1	1	1	492
15	1	1	1	1	476
0	1	1	1	1	455
1	1	1	1	1	440
2	1	1	1	1	419
3	1	1	1	1	403
4	1	1	1	1	391
5	1	1	1	1	384
6	1	1	1	1	384
7	1	1	1	1	384
8	1	1	1	1	396
9	1	1	1	1	414
10	1	1	1	1	432
11	1	1	1	1	455
12	1	1	1	1	476
13	1	1	1	1	494
14	1	1	1	1	504
15	1	1	1	1	511
0	1	1	1	1	510
1	1	1	1	1	499
2	1	1	1	1	487
3	1	1	1	1	472
4	1	1	1	1	451
5	1	1	1	1	432
6	1	1	1	1	412
7	1	1	1	1	391
8	1	1	1	1	380
9	1	1	1	1	368
10	1	1	1	1	366
11	1	1	1	1	368
12	1	1	1	1	380
13	1	1	1	1	391
14	1	1	1	1	414
15	1	1	1	1	435
0	1	1	1	1	455
1	1	1	1	1	476
2	1	1	1	1	487
3	1	1	1	1	494
4	1	1	1	1	494
5	1	1	1	1	487
6	1	1	1	1	473
7	1	1	1	1	455
8	1	1	1	1	440
9	1	1	1	1	415
10	1	1	1	1	399
11	1	1	1	1	384
12	1	1	1	1	366
13	1	1	1	1	355
14	1	1	1	1	352
15	1	1	1	1	353
0	1	1	1	1	364
1	1	1	1	1	380
2	1	1	1	1	399
3	1	1	1	1	419
4	1	1	1	1	440
5	1	1	1	1	460
6	1	1	1	1	472
7	1	1	1	1	480
8	1	1	1	1	480
9	1	1	1	1	476
10	1	1	1	1	463
11	1	1	1	1	449
12	1	1	1	1	432
13	1	1	1	1	415
14	1	1	1	1	398
15	1	1	1	1	384
0	1	1	1	1	369
1	1	1	1	1	359
2	1	1	1	1	359
3	1	1	1	1	368
4	1	1	1	1	377
5	1	1	1	1	396
6	1	1	1	1	415
7	1	1	1	1	440
8	1	1	1	1	460
9	1	1	1	1	480
10	1	1	1	1	492
11	1	1	1	1	499
12	1	1	1	1	499
13	1	1	1	1	494
14	1	1	1	1	481
15	1	1	1	1	467
0	1	1	1	1	449
1	1	1	1	1	432
2	1	1	1	1	414
3	1	1	1	1	399
4	1	1	1	1	385
5	1	1	1	1	380
6	1	1	1	1	377
7	1	1	1	1	384
8	1	1	1	1	396
9	1	1	1	1	415
10	1	1	1	1	440
11	1	1	1	1	463
12	1	1	1	1	487
13	1	1	1	1	511
14	1	1	1	1	527
15	1	1	1	1	540
0	1	1	1	1	543
1	1	1	1	1	543
2	1	1	1	1	542
3	1	1	1	1	536
4	1	1	1	1	524
5	1	1	1	1	513
6	1	1	1	1	504
7	1	1	1	1	496
8	1	1	1	1	494
9	1	1	1	1	496
10	1	1	1	1	504
11	1	1	1	1	519
12	1	1	1	1	540
13	1	1	1	1	568
14	1	1	1	1	595
15	1	1	1	1	627
0	1	1	1	1	655
1	1	1	1	1	684
2	1	1	1	1	704
3	1	1	1	1	711
4	1	1	1	1	716
5	1	1	1	1	707
6	1	1	1	1	689
7	1	1	1	1	665
8	1	1	1	1	636
9	1	1	1	1	600
10	1	1	1	1	560
11	1	1	1	1	519
12	1	1	1	1	483
13	1	1	1	1	451
14	1	1	1	1	423
15	1	1	1	1	399
0	1	1	1	1	385
1	1	1	1	1	376
2	1	1	1	1	376
3	1	1	1	1	376
4	1	1	1	1	380
5	1	1	1	1	384
6	1	1	1	1	384
7	1	1	1	1	384
8	1	1	1	1	376
9	1	1	1	1	368
10	1	1	1	1	359
11	1	1	1	1	348
12	1	1	1	1	335
13	1	1	1	1	327
14	1	1	1	1	318
15	1	1	1	1	312
0	1	1	1	1	312
1	1	1	1	1	312
2	1	1	1	1	319
3	1	1	1	1	337
4	1	1	1	1	359
5	1	1	1	1	387
6	1	1	1	1	415
7	1	1	1	1	449
8	1	1	1	1	480
9	1	1	1	1	508
10	1	1	1	1	527
11	1	1	1	1	542
12	1	1	1	1	547
13	1	1	1	1	543
14	1	1	1	1	536
15	1	1	1	1	519
0	1	1	1	1	504
1	1	1	1	1	483
2	1	1	1	1	463
3	1	1	1	1	448
4	1	1	1	1	430
5	1	1	1	1	419
6	1	1	1	1	415
7	1	1	1	1	415
8	1	1	1	1	423
9	1	1	1	1	440
10	1	1	1	1	460
11	1	1	1	1	481
12	1	1	1	1	504
13	1	1	1	1	521
14	1	1	1	1	536
15	1	1	1	1	543
0	1	1	1	1	543
1	1	1	1	1	537
2	1	1	1	1	527
3	1	1	1	1	512
4	1	1	1	1	496
5	1	1	1	1	478
6	1	1	1	1	460
7	1	1	1	1	448
8	1	1	1	1	432
9	1	1	1	1	423
10	1	1	1	1	423
11	1	1	1	1	430
12	1	1	1	1	440
13	1	1	1	1	455
14	1	1	1	1	480
15	1	1	1	1	499
0	1	1	1	1	521
1	1	1	1	1	540
2	1	1	1	1	551
3	1	1	1	1	560
4	1	1	1	1	560
5	1	1	1	1	551
6	1	1	1	1	540
7	1	1	1	1	526
8	1	1	1	1	508
9	1	1	1	1	487
10	1	1	1	1	472
11	1	1	1	1	455
12	1	1	1	1	444
13	1	1	1	1	435
14	1	1	1	1	435
15	1	1	1	1	440
0	1	1	1	1	451
1	1	1	1	1	472
2	1	1	1	1	489
3	1	1	1	1	512
4	1	1	1	1	536
5	1	1	1	1	551
6	1	1	1	1	563
7	1	1	1	1	569
8	1	1	1	1	568
9	1	1	1	1	561
10	1	1	1	1	551
11	1	1	1	1	536
12	1	1	1	1	515
13	1	1	1	1	496
14	1	1	1	1	478
15	1	1	1	1	460
0	1	1	1	1	448
1	1	1	1	1	435
2	1	1	1	1	432
3	1	1	1	1	433
4	1	1	1	1	444
5	1	1	1	1	460
6	1	1	1	1	480
7	1	1	1	1	499
8	1	1	1	1	519
9	1	1	1	1	540
10	1	1	1	1	551
11	1	1	1	1	560
12	1	1	1	1	560
13	1	1	1	1	551
14	1	1	1	1	542
15	1	1	1	1	527
0	1	1	1	1	508
1	1	1	1	1	487
2	1	1	1	1	472
3	1	1	1	1	455
4	1	1	1	1	444
5	1	1	1	1	435
6	1	1	1	1	433
7	1	1	1	1	440
8	1	1	1	1	448
9	1	1	1	1	463
10	1	1	1	1	486
11	1	1	1	1	508
12	1	1	1	1	527
13	1	1	1	1	543
14	1	1	1	1	560
15	1	1	1	1	563
0	1	1	1	1	563
1	1	1	1	1	556
2	1	1	1	1	543
3	1	1	1	1	527
4	1	1	1	1	508
5	1	1	1	1	487
6	1	1	1	1	465
7	1	1	1	1	448
8	1	1	1	1	432
9	1	1	1	1	423
10	1	1	1	1	419
11	1	1	1	1	423
12	1	1	1	1	432
13	1	1	1	1	448
14	1	1	1	1	467
15	1	1	1	1	487
0	1	1	1	1	511
1	1	1	1	1	527
2	1	1	1	1	542
3	1	1	1	1	547
4	1	1	1	1	547
5	1	1	1	1	542
6	1	1	1	1	529
7	1	1	1	1	513
8	1	1	1	1	496
9	1	1	1	1	478
10	1	1	1	1	460
11	1	1	1	1	444
12	1	1	1	1	432
13	1	1	1	1	423
14	1	1	1	1	422
15	1	1	1	1	428
0	1	1	1	1	440
1	1	1	1	1	455
2	1	1	1	1	476
3	1	1	1	1	497
4	1	1	1	1	519
5	1	1	1	1	536
6	1	1	1	1	551
7	1	1	1	1	556
8	1	1	1	1	556
9	1	1	1	1	547
10	1	1	1	1	536
11	1	1	1	1	519
12	1	1	1	1	504
13	1	1	1	1	483
14	1	1	1	1	463
15	1	1	1	1	448
0	1	1	1	1	435
1	1	1	1	1	430
2	1	1	1	1	428
3	1	1	1	1	432
4	1	1	1	1	444
5	1	1	1	1	462
6	1	1	1	1	481
7	1	1	1	1	504
8	1	1	1	1	527
9	1	1	1	1	543
10	1	1	1	1	558
11	1	1	1	1	563
12	1	1	1	1	563
13	1	1	1	1	558
14	1	1	1	1	543
15	1	1	1	1	527
0	1	1	1	1	511
1	1	1	1	1	492
2	1	1	1	1	472
3	1	1	1	1	455
4	1	1	1	1	444
5	1	1	1	1	438
6	1	1	1	1	435
7	1	1	1	1	440
8	1	1	1	1	451
9	1	1	1	1	472
10	1	1	1	1	492
11	1	1	1	1	513
12	1	1	1	1	536
13	1	1	1	1	551
14	1	1	1	1	568
15	1	1	1	1	572
0	1	1	1	1	572
1	1	1	1	1	563
2	1	1	1	1	551
3	1	1	1	1	536
4	1	1	1	1	518
5	1	1	1	1	497
6	1	1	1	1	480
7	1	1	1	1	463
8	1	1	1	1	451
9	1	1	1	1	448
10	1	1	1	1	444
11	1	1	1	1	449
12	1	1	1	1	462
13	1	1	1	1	480
14	1	1	1	1	499
15	1	1	1	1	524
0	1	1	1	1	543
1	1	1	1	1	563
2	1	1	1	1	575
3	1	1	1	1	582
4	1	1	1	1	579
5	1	1	1	1	574
6	1	1	1	1	560
7	1	1	1	1	543
8	1	1	1	1	527
9	1	1	1	1	508
10	1	1	1	1	492
11	1	1	1	1	476
12	1	1	1	1	463
13	1	1	1	1	455
14	1	1	1	1	455
15	1	1	1	1	462
0	1	1	1	1	473
1	1	1	1	1	492
2	1	1	1	1	513
3	1	1	1	1	536
4	1	1	1	1	560
5	1	1	1	1	575
6	1	1	1	1	591
7	1	1	1	1	595
8	1	1	1	1	595
9	1	1	1	1	590
10	1	1	1	1	575
11	1	1	1	1	560
12	1	1	1	1	543
13	1	1	1	1	519
14	1	1	1	1	504
15	1	1	1	1	483
0	1	1	1	1	470
1	1	1	1	1	460
2	1	1	1	1	455
3	1	1	1	1	460
4	1	1	1	1	467
5	1	1	1	1	483
6	1	1	1	1	504
7	1	1	1	1	524
8	1	1	1	1	543
9	1	1	1	1	560
10	1	1	1	1	572
11	1	1	1	1	575
12	1	1	1	1	574
13	1	1	1	1	566
14	1	1	1	1	551
15	1	1	1	1	536
0	1	1	1	1	513
1	1	1	1	1	492
2	1	1	1	1	472
3	1	1	1	1	455
4	1	1	1	1	440
5	1	1	1	1	430
6	1	1	1	1	423
7	1	1	1	1	430
8	1	1	1	1	440
9	1	1	1	1	455
10	1	1	1	1	473
11	1	1	1	1	496
12	1	1	1	1	515
13	1	1	1	1	531
14	1	1	1	1	543
15	1	1	1	1	550
0	1	1	1	1	547
1	1	1	1	1	540
2	1	1	1	1	527
3	1	1	1	1	511
4	1	1	1	1	492
5	1	1	1	1	472
6	1	1	1	1	454
7	1	1	1	1	440
8	1	1	1	1	423
9	1	1	1	1	415
10	1	1	1	1	415
11	1	1	1	1	419
12	1	1	1	1	432
13	1	1	1	1	448
14	1	1	1	1	467
15	1	1	1	1	489
0	1	1	1	1	511
1	1	1	1	1	527
2	1	1	1	1	542
3	1	1	1	1	547
4	1	1	1	1	543
5	1	1	1	1	540
6	1	1	1	1	527
7	1	1	1	1	510
8	1	1	1	1	492
9	1	1	1	1	472
10	1	1	1	1	451
11	1	1	1	1	435
12	1	1	1	1	423
13	1	1	1	1	415
14	1	1	1	1	412
15	1	1	1	1	415
0	1	1	1	1	428
1	1	1	1	1	444
2	1	1	1	1	463
3	1	1	1	1	487
4	1	1	1	1	508
5	1	1	1	1	524
6	1	1	1	1	536
7	1	1	1	1	542
8	1	1	1	1	540
9	1	1	1	1	531
10	1	1	1	1	519
11	1	1	1	1	504
12	1	1	1	1	483
13	1	1	1	1	463
14	1	1	1	1	448
15	1	1	1	1	428
0	1	1	1	1	414
1	1	1	1	1	403
2	1	1	1	1	401
3	1	1	1	1	408
4	1	1	1	1	415
5	1	1	1	1	433
6	1	1	1	1	455
7	1	1	1	1	480
8	1	1	1	1	504
9	1	1	1	1	519
10	1	1	1	1	536
11	1	1	1	1	543
12	1	1	1	1	543
13	1	1	1	1	536
14	1	1	1	1	526
15	1	1	1	1	510
0	1	1	1	1	492
1	1	1	1	1	472
2	1	1	1	1	451
3	1	1	1	1	435
4	1	1	1	1	423
5	1	1	1	1	414
6	1	1	1	1	412
7	1	1	1	1	415
8	1	1	1	1	423
9	1	1	1	1	440
10	1	1	1	1	457
11	1	1	1	1	480
12	1	1	1	1	499
13	1	1	1	1	515
14	1	1	1	1	527
15	1	1	1	1	531
0	1	1	1	1	531
1	1	1	1	1	524
2	1	1	1	1	512
3	1	1	1	1	496
4	1	1	1	1	480
5	1	1	1	1	460
6	1	1	1	1	441
7	1	1	1	1	423
8	1	1	1	1	414
9	1	1	1	1	408
10	1	1	1	1	403
11	1	1	1	1	408
12	1	1	1	1	419
13	1	1	1	1	438
14	1	1	1	1	455
15	1	1	1	1	480
0	1	1	1	1	499
1	1	1	1	1	519
2	1	1	1	1	529
3	1	1	1	1	536
4	1	1	1	1	536
5	1	1	1	1	526
6	1	1	1	1	512
7	1	1	1	1	496
8	1	1	1	1	476
9	1	1	1	1	455
10	1	1	1	1	435
11	1	1	1	1	415
12	1	1	1	1	403
13	1	1	1	1	396
14	1	1	1	1	391
15	1	1	1	1	399
0	1	1	1	1	408
1	1	1	1	1	428
2	1	1	1	1	448
3	1	1	1	1	472
4	1	1	1	1	492
5	1	1	1	1	510
6	1	1	1	1	521
7	1	1	1	1	527
8	1	1	1	1	527
9	1	1	1	1	519
10	1	1	1	1	508
11	1	1	1	1	492
12	1	1	1	1	472
13	1	1	1	1	451
14	1	1	1	1	433
15	1	1	1	1	415
0	1	1	1	1	403
1	1	1	1	1	398
2	1	1	1	1	396
3	1	1	1	1	399
4	1	1	1	1	412
5	1	1	1	1	430
6	1	1	1	1	449
7	1	1	1	1	472
8	1	1	1	1	494
9	1	1	1	1	511
10	1	1	1	1	524
11	1	1	1	1	529
12	1	1	1	1	527
13	1	1	1	1	521
14	1	1	1	1	510
15	1	1	1	1	494
0	1	1	1	1	476
1	1	1	1	1	455
2	1	1	1	1	440
3	1	1	1	1	422
4	1	1	1	1	408
5	1	1	1	1	399
6	1	1	1	1	399
7	1	1	1	1	403
8	1	1	1	1	415
9	1	1	1	1	432
10	1	1	1	1	454
11	1	1	1	1	476
12	1	1	1	1	496
13	1	1	1	1	513
14	1	1	1	1	526
15	1	1	1	1	529
0	1	1	1	1	527
1	1	1	1	1	519
2	1	1	1	1	508
3	1	1	1	1	489
4	1	1	1	1	472
5	1	1	1	1	451
6	1	1	1	1	432
7	1	1	1	1	415
8	1	1	1	1	403
9	1	1	1	1	398
10	1	1	1	1	396
11	1	1	1	1	401
12	1	1	1	1	415
13	1	1	1	1	432
14	1	1	1	1	455
15	1	1	1	1	478
0	1	1	1	1	497
1	1	1	1	1	518
2	1	1	1	1	527
3	1	1	1	1	536
4	1	1	1	1	536
5	1	1	1	1	527
6	1	1	1	1	513
7	1	1	1	1	497
8	1	1	1	1	480
9	1	1	1	1	460
10	1	1	1	1	440
11	1	1	1	1	423
12	1	1	1	1	412
13	1	1	1	1	403
14	1	1	1	1	401
15	1	1	1	1	408
0	1	1	1	1	419
1	1	1	1	1	435
2	1	1	1	1	455
3	1	1	1	1	480
4	1	1	1	1	499
5	1	1	1	1	515
6	1	1	1	1	527
7	1	1	1	1	536
8	1	1	1	1	531
9	1	1	1	1	524
10	1	1	1	1	511
11	1	1	1	1	496
12	1	1	1	1	476
13	1	1	1	1	455
14	1	1	1	1	435
15	1	1	1	1	419
0	1	1	1	1	408
1	1	1	1	1	398
2	1	1	1	1	396
3	1	1	1	1	399
4	1	1	1	1	409
5	1	1	1	1	423
6	1	1	1	1	448
7	1	1	1	1	467
8	1	1	1	1	487
9	1	1	1	1	504
10	1	1	1	1	515
11	1	1	1	1	519
12	1	1	1	1	519
13	1	1	1	1	511
14	1	1	1	1	496
15	1	1	1	1	480
0	1	1	1	1	462
1	1	1	1	1	440
2	1	1	1	1	423
3	1	1	1	1	408
4	1	1	1	1	391
5	1	1	1	1	384
6	1	1	1	1	384
7	1	1	1	1	390
8	1	1	1	1	399
9	1	1	1	1	415
10	1	1	1	1	440
11	1	1	1	1	462
12	1	1	1	1	480
13	1	1	1	1	497
14	1	1	1	1	510
15	1	1	1	1	513
0	1	1	1	1	511
1	1	1	1	1	504
2	1	1	1	1	487
3	1	1	1	1	472
4	1	1	1	1	448
5	1	1	1	1	428
6	1	1	1	1	408
7	1	1	1	1	391
8	1	1	1	1	376
9	1	1	1	1	368
10	1	1	1	1	368
11	1	1	1	1	371
12	1	1	1	1	384
13	1	1	1	1	401
14	1	1	1	1	423
15	1	1	1	1	448
0	1	1	1	1	470
1	1	1	1	1	487
2	1	1	1	1	502
3	1	1	1	1	508
4	1	1	1	1	508
5	1	1	1	1	504
6	1	1	1	1	489
7	1	1	1	1	476
8	1	1	1	1	457
9	1	1	1	1	440
10	1	1	1	1	423
11	1	1	1	1	408
12	1	1	1	1	396
13	1	1	1	1	390
14	1	1	1	1	387
15	1	1	1	1	396
0	1	1	1	1	408
1	1	1	1	1	425
2	1	1	1	1	448
3	1	1	1	1	472
4	1	1	1	1	489
5	1	1	1	1	508
6	1	1	1	1	519
7	1	1	1	1	524
8	1	1	1	1	521
9	1	1	1	1	513
10	1	1	1	1	504
11	1	1	1	1	487
12	1	1	1	1	467
13	1	1	1	1	449
14	1	1	1	1	432
15	1	1	1	1	415
0	1	1	1	1	408
1	1	1	1	1	399
2	1	1	1	1	401
3	1	1	1	1	408
4	1	1	1	1	423
5	1	1	1	1	440
6	1	1	1	1	463
7	1	1	1	1	483
8	1	1	1	1	505
9	1	1	1	1	524
10	1	1	1	1	536
11	1	1	1	1	542
12	1	1	1	1	540
13	1	1	1	1	531
14	1	1	1	1	519
15	1	1	1	1	504
0	1	1	1	1	483
1	1	1	1	1	463
2	1	1	1	1	448
3	1	1	1	1	430
4	1	1	1	1	415
5	1	1	1	1	409
6	1	1	1	1	408
7	1	1	1	1	415
8	1	1	1	1	428
9	1	1	1	1	444
10	1	1	1	1	463
11	1	1	1	1	487
12	1	1	1	1	508
13	1	1	1	1	526
14	1	1	1	1	536
15	1	1	1	1	543
0	1	1	1	1	542
1	1	1	1	1	536
2	1	1	1	1	519
3	1	1	1	1	504
4	1	1	1	1	483
5	1	1	1	1	463
6	1	1	1	1	448
7	1	1	1	1	430
8	1	1	1	1	415
9	1	1	1	1	409
10	1	1	1	1	408
11	1	1	1	1	415
12	1	1	1	1	425
13	1	1	1	1	444
14	1	1	1	1	463
15	1	1	1	1	487
0	1	1	1	1	508
1	1	1	1	1	526
2	1	1	1	1	536
3	1	1	1	1	540
4	1	1	1	1	537
5	1	1	1	1	527
6	1	1	1	1	515
7	1	1	1	1	497
8	1	1	1	1	480
9	1	1	1	1	460
10	1	1	1	1	440
11	1	1	1	1	423
12	1	1	1	1	409
13	1	1	1	1	401
14	1	1	1	1	399
15	1	1	1	1	408
0	1	1	1	1	415
1	1	1	1	1	435
2	1	1	1	1	455
3	1	1	1	1	480
4	1	1	1	1	499
5	1	1	1	1	519
6	1	1	1	1	529
7	1	1	1	1	536
8	1	1	1	1	536
9	1	1	1	1	527
10	1	1	1	1	518
11	1	1	1	1	504
12	1	1	1	1	483
13	1	1	1	1	463
14	1	1	1	1	448
15	1	1	1	1	432
0	1	1	1	1	419
1	1	1	1	1	412
2	1	1	1	1	412
3	1	1	1	1	415
4	1	1	1	1	430
5	1	1	1	1	448
6	1	1	1	1	467
7	1	1	1	1	487
8	1	1	1	1	510
9	1	1	1	1	526
10	1	1	1	1	536
11	1	1	1	1	542
12	1	1	1	1	540
13	1	1	1	1	536
14	1	1	1	1	521
15	1	1	1	1	508
0	1	1	1	1	492
1	1	1	1	1	476
2	1	1	1	1	462
3	1	1	1	1	449
4	1	1	1	1	444
5	1	1	1	1	440
6	1	1	1	1	448
7	1	1	1	1	460
8	1	1	1	1	480
9	1	1	1	1	504
10	1	1	1	1	536
11	1	1	1	1	568
12	1	1	1	1	595
13	1	1	1	1	624
14	1	1	1	1	639
15	1	1	1	1	657
0	1	1	1	1	668
1	1	1	1	1	668
2	1	1	1	1	664
3	1	1	1	1	657
4	1	1	1	1	647
5	1	1	1	1	636
6	1	1	1	1	624
7	1	1	1	1	611
8	1	1	1	1	604
9	1	1	1	1	595
10	1	1	1	1	591
11	1	1	1	1	591
12	1	1	1	1	591
13	1	1	1	1	600
14	1	1	1	1	608
15	1	1	1	1	611
0	1	1	1	1	615
1	1	1	1	1	611
2	1	1	1	1	601
3	1	1	1	1	583
4	1	1	1	1	560
5	1	1	1	1	527
6	1	1	1	1	492
7	1	1	1	1	451
8	1	1	1	1	412
9	1	1	1	1	371
10	1	1	1	1	335
11	1	1	1	1	304
12	1	1	1	1	280
13	1	1	1	1	259
14	1	1	1	1	254
15	1	1	1	1	255
0	1	1	1	1	268
1	1	1	1	1	287
2	1	1	1	1	316
3	1	1	1	1	344
4	1	1	1	1	376
5	1	1	1	1	403
6	1	1	1	1	423
7	1	1	1	1	444
8	1	1	1	1	451
9	1	1	1	1	455
10	1	1	1	1	454
11	1	1	1	1	448
12	1	1	1	1	435
13	1	1	1	1	423
14	1	1	1	1	412
15	1	1	1	1	401
0	1	1	1	1	396
1	1	1	1	1	391
2	1	1	1	1	396
3	1	1	1	1	403
4	1	1	1	1	415
5	1	1	1	1	435
6	1	1	1	1	460
7	1	1	1	1	480
8	1	1	1	1	504
9	1	1	1	1	519
10	1	1	1	1	527
11	1	1	1	1	536
12	1	1	1	1	531
13	1	1	1	1	521
14	1	1	1	1	508
15	1	1	1	1	492
0	1	1	1	1	472
1	1	1	1	1	451
2	1	1	1	1	433
3	1	1	1	1	415
4	1	1	1	1	406
5	1	1	1	1	398
6	1	1	1	1	398
7	1	1	1	1	401
8	1	1	1	1	415
9	1	1	1	1	432
10	1	1	1	1	454
11	1	1	1	1	476
12	1	1	1	1	496
13	1	1	1	1	515
14	1	1	1	1	527
15	1	1	1	1	536
0	1	1	1	1	536
1	1	1	1	1	527
2	1	1	1	1	515
3	1	1	1	1	499
4	1	1	1	1	483
5	1	1	1	1	463
6	1	1	1	1	448
7	1	1	1	1	432
8	1	1	1	1	419
9	1	1	1	1	414
10	1	1	1	1	414
11	1	1	1	1	417
12	1	1	1	1	432
13	1	1	1	1	448
14	1	1	1	1	467
15	1	1	1	1	492
0	1	1	1	1	511
1	1	1	1	1	527
2	1	1	1	1	542
3	1	1	1	1	543
4	1	1	1	1	543
5	1	1	1	1	540
6	1	1	1	1	527
7	1	1	1	1	512
8	1	1	1	1	496
9	1	1	1	1	480
10	1	1	1	1	462
11	1	1	1	1	448
12	1	1	1	1	435
13	1	1	1	1	432
14	1	1	1	1	432
15	1	1	1	1	440
0	1	1	1	1	454
1	1	1	1	1	472
2	1	1	1	1	494
3	1	1	1	1	515
4	1	1	1	1	536
5	1	1	1	1	556
6	1	1	1	1	568
7	1	1	1	1	569
8	1	1	1	1	568
9	1	1	1	1	560
10	1	1	1	1	547
11	1	1	1	1	531
12	1	1	1	1	513
13	1	1	1	1	496
14	1	1	1	1	480
15	1	1	1	1	463
0	1	1	1	1	451
1	1	1	1	1	448
2	1	1	1	1	448
3	1	1	1	1	454
4	1	1	1	1	467
5	1	1	1	1	487
6	1	1	1	1	508
7	1	1	1	1	531
8	1	1	1	1	551
9	1	1	1	1	572
10	1	1	1	1	583
11	1	1	1	1	590
12	1	1	1	1	588
13	1	1	1	1	582
14	1	1	1	1	568
15	1	1	1	1	551
0	1	1	1	1	536
1	1	1	1	1	518
2	1	1	1	1	499
3	1	1	1	1	483
4	1	1	1	1	472
5	1	1	1	1	465
6	1	1	1	1	465
7	1	1	1	1	472
8	1	1	1	1	486
9	1	1	1	1	504
10	1	1	1	1	526
11	1	1	1	1	547
12	1	1	1	1	568
13	1	1	1	1	583
14	1	1	1	1	600
15	1	1	1	1	604
0	1	1	1	1	600
1	1	1	1	1	591
2	1	1	1	1	582
3	1	1	1	1	568
4	1	1	1	1	547
5	1	1	1	1	527
6	1	1	1	1	511
7	1	1	1	1	496
8	1	1	1	1	483
9	1	1	1	1	480
10	1	1	1	1	480
11	1	1	1	1	483
12	1	1	1	1	497
13	1	1	1	1	515
14	1	1	1	1	537
15	1	1	1	1	560
0	1	1	1	1	583
1	1	1	1	1	600
2	1	1	1	1	611
3	1	1	1	1	615
4	1	1	1	1	615
5	1	1	1	1	608
6	1	1	1	1	595
7	1	1	1	1	579
8	1	1	1	1	561
9	1	1	1	1	543
10	1	1	1	1	526
11	1	1	1	1	511
12	1	1	1	1	499
13	1	1	1	1	494
14	1	1	1	1	494
15	1	1	1	1	499
0	1	1	1	1	513
1	1	1	1	1	534
2	1	1	1	1	556
3	1	1	1	1	575
4	1	1	1	1	600
5	1	1	1	1	615
6	1	1	1	1	632
7	1	1	1	1	636
8	1	1	1	1	636
9	1	1	1	1	627
10	1	1	1	1	615
11	1	1	1	1	600
12	1	1	1	1	583
13	1	1	1	1	568
14	1	1	1	1	547
15	1	1	1	1	531
0	1	1	1	1	519
1	1	1	1	1	513
2	1	1	1	1	513
3	1	1	1	1	519
4	1	1	1	1	531
5	1	1	1	1	551
6	1	1	1	1	572
7	1	1	1	1	593
8	1	1	1	1	615
9	1	1	1	1	632
10	1	1	1	1	639
11	1	1	1	1	649
12	1	1	1	1	647
13	1	1	1	1	639
14	1	1	1	1	627
15	1	1	1	1	611
0	1	1	1	1	591
1	1	1	1	1	572
2	1	1	1	1	551
3	1	1	1	1	536
4	1	1	1	1	519
5	1	1	1	1	512
6	1	1	1	1	511
7	1	1	1	1	515
8	1	1	1	1	527
9	1	1	1	1	543
10	1	1	1	1	563
11	1	1	1	1	588
12	1	1	1	1	608
13	1	1	1	1	624
14	1	1	1	1	636
15	1	1	1	1	639
0	1	1	1	1	639
1	1	1	1	1	632
2	1	1	1	1	622
3	1	1	1	1	608
4	1	1	1	1	590
5	1	1	1	1	572
6	1	1	1	1	556
7	1	1	1	1	542
8	1	1	1	1	531
9	1	1	1	1	526
10	1	1	1	1	527
11	1	1	1	1	536
12	1	1	1	1	547
13	1	1	1	1	568
14	1	1	1	1	588
15	1	1	1	1	609
0	1	1	1	1	632
1	1	1	1	1	647
2	1	1	1	1	659
3	1	1	1	1	664
4	1	1	1	1	659
5	1	1	1	1	649
6	1	1	1	1	636
7	1	1	1	1	615
8	1	1	1	1	595
9	1	1	1	1	575
10	1	1	1	1	556
11	1	1	1	1	536
12	1	1	1	1	524
13	1	1	1	1	513
14	1	1	1	1	512
15	1	1	1	1	519
0	1	1	1	1	529
1	1	1	1	1	547
2	1	1	1	1	568
3	1	1	1	1	591
4	1	1	1	1	609
5	1	1	1	1	627
6	1	1	1	1	639
7	1	1	1	1	639
8	1	1	1	1	639
9	1	1	1	1	632
10	1	1	1	1	615
11	1	1	1	1	598
12	1	1	1	1	575
13	1	1	1	1	553
14	1	1	1	1	534
15	1	1	1	1	513
0	1	1	1	1	499
1	1	1	1	1	487
2	1	1	1	1	486
3	1	1	1	1	487
4	1	1	1	1	499
5	1	1	1	1	515
6	1	1	1	1	536
7	1	1	1	1	553
8	1	1	1	1	574
9	1	1	1	1	588
10	1	1	1	1	600
11	1	1	1	1	600
12	1	1	1	1	600
13	1	1	1	1	588
14	1	1	1	1	574
15	1	1	1	1	556
0	1	1	1	1	536
1	1	1	1	1	512
2	1	1	1	1	494
3	1	1	1	1	476
4	1	1	1	1	462
5	1	1	1	1	451
6	1	1	1	1	448
7	1	1	1	1	451
8	1	1	1	1	463
9	1	1	1	1	480
10	1	1	1	1	496
11	1	1	1	1	518
12	1	1	1	1	536
13	1	1	1	1	551
14	1	1	1	1	560
15	1	1	1	1	563
0	1	1	1	1	560
1	1	1	1	1	551
2	1	1	1	1	536
3	1	1	1	1	519
4	1	1	1	1	497
5	1	1	1	1	480
6	1	1	1	1	460
7	1	1	1	1	441
8	1	1	1	1	430
9	1	1	1	1	419
10	1	1	1	1	419
11	1	1	1	1	423
12	1	1	1	1	433
13	1	1	1	1	449
14	1	1	1	1	472
15	1	1	1	1	492
0	1	1	1	1	511
1	1	1	1	1	527
2	1	1	1	1	536
3	1	1	1	1	540
4	1	1	1	1	536
5	1	1	1	1	527
6	1	1	1	1	513
7	1	1	1	1	496
8	1	1	1	1	480
9	1	1	1	1	460
10	1	1	1	1	440
11	1	1	1	1	423
12	1	1	1	1	412
13	1	1	1	1	403
14	1	1	1	1	403
15	1	1	1	1	408
0	1	1	1	1	419
1	1	1	1	1	440
2	1	1	1	1	460
3	1	1	1	1	480
4	1	1	1	1	499
5	1	1	1	1	518
6	1	1	1	1	527
7	1	1	1	1	531
8	1	1	1	1	529
9	1	1	1	1	519
10	1	1	1	1	508
11	1	1	1	1	492
12	1	1	1	1	472
13	1	1	1	1	451
14	1	1	1	1	433
15	1	1	1	1	415
0	1	1	1	1	406
1	1	1	1	1	399
2	1	1	1	1	398
3	1	1	1	1	403
4	1	1	1	1	415
5	1	1	1	1	433
6	1	1	1	1	455
7	1	1	1	1	478
8	1	1	1	1	496
9	1	1	1	1	513
10	1	1	1	1	524
11	1	1	1	1	527
12	1	1	1	1	526
13	1	1	1	1	515
14	1	1	1	1	504
15	1	1	1	1	483
0	1	1	1	1	463
1	1	1	1	1	448
2	1	1	1	1	428
3	1	1	1	1	412
4	1	1	1	1	399
5	1	1	1	1	391
6	1	1	1	1	391
7	1	1	1	1	396
8	1	1	1	1	408
9	1	1	1	1	423
10	1	1	1	1	448
11	1	1	1	1	467
12	1	1	1	1	487
13	1	1	1	1	504
14	1	1	1	1	513
15	1	1	1	1	519
0	1	1	1	1	515
1	1	1	1	1	508
2	1	1	1	1	496
3	1	1	1	1	480
4	1	1	1	1	460
5	1	1	1	1	440
6	1	1	1	1	422
7	1	1	1	1	408
8	1	1	1	1	391
9	1	1	1	1	385
10	1	1	1	1	384
11	1	1	1	1	391
12	1	1	1	1	401
13	1	1	1	1	419
14	1	1	1	1	440
15	1	1	1	1	460
0	1	1	1	1	480
1	1	1	1	1	496
2	1	1	1	1	505
3	1	1	1	1	510
4	1	1	1	1	508
5	1	1	1	1	497
6	1	1	1	1	486
7	1	1	1	1	472
8	1	1	1	1	451
9	1	1	1	1	432
10	1	1	1	1	415
11	1	1	1	1	399
12	1	1	1	1	391
13	1	1	1	1	384
14	1	1	1	1	384
15	1	1	1	1	391
0	1	1	1	1	403
1	1	1	1	1	423
2	1	1	1	1	444
3	1	1	1	1	465
4	1	1	1	1	487
5	1	1	1	1	504
6	1	1	1	1	513
7	1	1	1	1	518
8	1	1	1	1	513
9	1	1	1	1	504
10	1	1	1	1	492
11	1	1	1	1	473
12	1	1	1	1	455
13	1	1	1	1	435
14	1	1	1	1	415
15	1	1	1	1	399
0	1	1	1	1	387
1	1	1	1	1	384
2	1	1	1	1	384
3	1	1	1	1	387
4	1	1	1	1	401
5	1	1	1	1	419
6	1	1	1	1	444
7	1	1	1	1	463
8	1	1	1	1	487
9	1	1	1	1	504
10	1	1	1	1	513
11	1	1	1	1	519
12	1	1	1	1	515
13	1	1	1	1	508
14	1	1	1	1	496
15	1	1	1	1	478
0	1	1	1	1	460
1	1	1	1	1	440
2	1	1	1	1	422
3	1	1	1	1	408
4	1	1	1	1	396
5	1	1	1	1	387
6	1	1	1	1	387
7	1	1	1	1	396
8	1	1	1	1	408
9	1	1	1	1	428
10	1	1	1	1	448
11	1	1	1	1	472
12	1	1	1	1	492
13	1	1	1	1	508
14	1	1	1	1	519
15	1	1	1	1	524
0	1	1	1	1	519
1	1	1	1	1	512
2	1	1	1	1	499
3	1	1	1	1	481
4	1	1	1	1	463
5	1	1	1	1	444
6	1	1	1	1	423
7	1	1	1	1	408
8	1	1	1	1	396
9	1	1	1	1	387
10	1	1	1	1	387
11	1	1	1	1	393
12	1	1	1	1	408
13	1	1	1	1	423
14	1	1	1	1	448
15	1	1	1	1	472
0	1	1	1	1	492
1	1	1	1	1	508
2	1	1	1	1	519
3	1	1	1	1	526
4	1	1	1	1	524
5	1	1	1	1	515
6	1	1	1	1	504
7	1	1	1	1	487
8	1	1	1	1	472
9	1	1	1	1	455
10	1	1	1	1	440
11	1	1	1	1	423
12	1	1	1	1	412
13	1	1	1	1	408
14	1	1	1	1	408
15	1	1	1	1	412
0	1	1	1	1	423
1	1	1	1	1	441
2	1	1	1	1	463
3	1	1	1	1	483
4	1	1	1	1	504
5	1	1	1	1	519
6	1	1	1	1	527
7	1	1	1	1	531
8	1	1	1	1	527
9	1	1	1	1	519
10	1	1	1	1	508
11	1	1	1	1	492
12	1	1	1	1	473
13	1	1	1	1	455
14	1	1	1	1	440
15	1	1	1	1	425
0	1	1	1	1	415
1	1	1	1	1	412
2	1	1	1	1	414
3	1	1	1	1	423
4	1	1	1	1	435
5	1	1	1	1	455
6	1	1	1	1	478
7	1	1	1	1	499
8	1	1	1	1	519
9	1	1	1	1	536
10	1	1	1	1	543
11	1	1	1	1	547
12	1	1	1	1	543
13	1	1	1	1	536
14	1	1	1	1	519
15	1	1	1	1	504
0	1	1	1	1	483
1	1	1	1	1	463
2	1	1	1	1	448
3	1	1	1	1	432
4	1	1	1	1	419
5	1	1	1	1	414
6	1	1	1	1	414
7	1	1	1	1	419
8	1	1	1	1	433
9	1	1	1	1	451
10	1	1	1	1	476
11	1	1	1	1	497
12	1	1	1	1	519
13	1	1	1	1	536
14	1	1	1	1	543
15	1	1	1	1	551
0	1	1	1	1	547
1	1	1	1	1	537
2	1	1	1	1	524
3	1	1	1	1	508
4	1	1	1	1	487
5	1	1	1	1	467
6	1	1	1	1	449
7	1	1	1	1	433
8	1	1	1	1	423
9	1	1	1	1	415
10	1	1	1	1	415
11	1	1	1	1	423
12	1	1	1	1	438
13	1	1	1	1	455
14	1	1	1	1	478
15	1	1	1	1	499
0	1	1	1	1	519
1	1	1	1	1	536
2	1	1	1	1	547
3	1	1	1	1	551
4	1	1	1	1	551
5	1	1	1	1	543
6	1	1	1	1	527
7	1	1	1	1	512
8	1	1	1	1	494
9	1	1	1	1	473
10	1	1	1	1	455
11	1	1	1	1	440
12	1	1	1	1	428
13	1	1	1	1	419
14	1	1	1	1	419
15	1	1	1	1	423
0	1	1	1	1	438
1	1	1	1	1	455
2	1	1	1	1	476
3	1	1	1	1	497
4	1	1	1	1	519
5	1	1	1	1	536
6	1	1	1	1	543
7	1	1	1	1	550
8	1	1	1	1	543
9	1	1	1	1	537
10	1	1	1	1	524
11	1	1	1	1	508
12	1	1	1	1	487
13	1	1	1	1	472
14	1	1	1	1	451
15	1	1	1	1	440
0	1	1	1	1	428
1	1	1	1	1	423
2	1	1	1	1	423
3	1	1	1	1	432
4	1	1	1	1	448
5	1	1	1	1	463
6	1	1	1	1	487
7	1	1	1	1	508
8	1	1	1	1	527
9	1	1	1	1	543
10	1	1	1	1	556
11	1	1	1	1	560
12	1	1	1	1	556
13	1	1	1	1	543
14	1	1	1	1	531
15	1	1	1	1	513
0	1	1	1	1	494
1	1	1	1	1	473
2	1	1	1	1	455
3	1	1	1	1	440
4	1	1	1	1	423
5	1	1	1	1	417
6	1	1	1	1	415
7	1	1	1	1	423
8	1	1	1	1	435
9	1	1	1	1	451
10	1	1	1	1	472
11	1	1	1	1	496
12	1	1	1	1	513
13	1	1	1	1	529
14	1	1	1	1	542
15	1	1	1	1	543
0	1	1	1	1	543
1	1	1	1	1	534
2	1	1	1	1	519
3	1	1	1	1	504
4	1	1	1	1	481
5	1	1	1	1	463
6	1	1	1	1	444
7	1	1	1	1	428
8	1	1	1	1	415
9	1	1	1	1	408
10	1	1	1	1	406
11	1	1	1	1	412
12	1	1	1	1	423
13	1	1	1	1	440
14	1	1	1	1	460
15	1	1	1	1	480
0	1	1	1	1	497
1	1	1	1	1	513
2	1	1	1	1	524
3	1	1	1	1	524
4	1	1	1	1	519
5	1	1	1	1	510
6	1	1	1	1	496
7	1	1	1	1	476
8	1	1	1	1	455
9	1	1	1	1	438
10	1	1	1	1	419
11	1	1	1	1	403
12	1	1	1	1	391
13	1	1	1	1	384
14	1	1	1	1	384
15	1	1	1	1	391
0	1	1	1	1	406
1	1	1	1	1	423
2	1	1	1	1	444
3	1	1	1	1	465
4	1	1	1	1	486
5	1	1	1	1	502
6	1	1	1	1	511
7	1	1	1	1	513
8	1	1	1	1	511
9	1	1	1	1	504
10	1	1	1	1	487
11	1	1	1	1	472
12	1	1	1	1	451
13	1	1	1	1	432
14	1	1	1	1	415
15	1	1	1	1	399
0	1	1	1	1	387
1	1	1	1	1	384
2	1	1	1	1	384
3	1	1	1	1	387
4	1	1	1	1	399
5	1	1	1	1	419
6	1	1	1	1	440
7	1	1	1	1	463
8	1	1	1	1	483
9	1	1	1	1	499
10	1	1	1	1	510
11	1	1	1	1	513
12	1	1	1	1	511
13	1	1	1	1	504
14	1	1	1	1	487
15	1	1	1	1	472
0	1	1	1	1	454
1	1	1	1	1	435
2	1	1	1	1	419
3	1	1	1	1	408
4	1	1	1	1	398
5	1	1	1	1	396
6	1	1	1	1	399
7	1	1	1	1	415
8	1	1	1	1	433
9	1	1	1	1	462
10	1	1	1	1	492
11	1	1	1	1	524
12	1	1	1	1	551
13	1	1	1	1	579
14	1	1	1	1	600
15	1	1	1	1	615
0	1	1	1	1	624
1	1	1	1	1	625
2	1	1	1	1	624
3	1	1	1	1	615
4	1	1	1	1	608
5	1	1	1	1	600
6	1	1	1	1	588
7	1	1	1	1	582
8	1	1	1	1	575
9	1	1	1	1	574
10	1	1	1	1	575
11	1	1	1	1	579
12	1	1	1	1	590
13	1	1	1	1	600
14	1	1	1	1	611
15	1	1	1	1	620
0	1	1	1	1	624
1	1	1	1	1	624
2	1	1	1	1	615
3	1	1	1	1	600
4	1	1	1	1	575
5	1	1	1	1	543
6	1	1	1	1	508
7	1	1	1	1	467
8	1	1	1	1	428
9	1	1	1	1	387
10	1	1	1	1	350
11	1	1	1	1	316
12	1	1	1	1	287
13	1	1	1	1	268
14	1	1	1	1	255
15	1	1	1	1	255
0	1	1	1	1	268
1	1	1	1	1	286
2	1	1	1	1	310
3	1	1	1	1	335
4	1	1	1	1	368
5	1	1	1	1	391
6	1	1	1	1	415
7	1	1	1	1	432
8	1	1	1	1	440
9	1	1	1	1	444
10	1	1	1	1	444
11	1	1	1	1	435
12	1	1	1	1	430
13	1	1	1	1	419
14	1	1	1	1	412
15	1	1	1	1	403
0	1	1	1	1	399
1	1	1	1	1	401
2	1	1	1	1	408
3	1	1	1	1	419
4	1	1	1	1	435
5	1	1	1	1	455
6	1	1	1	1	480
7	1	1	1	1	504
8	1	1	1	1	526
9	1	1	1	1	542
10	1	1	1	1	551
11	1	1	1	1	553
12	1	1	1	1	551
13	1	1	1	1	540
14	1	1	1	1	526
15	1	1	1	1	508
0	1	1	1	1	487
1	1	1	1	1	467
2	1	1	1	1	448
3	1	1	1	1	433
4	1	1	1	1	423
5	1	1	1	1	415
6	1	1	1	1	415
7	1	1	1	1	423
8	1	1	1	1	440
9	1	1	1	1	460
10	1	1	1	1	481
11	1	1	1	1	504
12	1	1	1	1	527
13	1	1	1	1	543
14	1	1	1	1	556
15	1	1	1	1	560
0	1	1	1	1	556
1	1	1	1	1	543
2	1	1	1	1	531
3	1	1	1	1	515
4	1	1	1	1	496
5	1	1	1	1	476
6	1	1	1	1	460
7	1	1	1	1	444
8	1	1	1	1	432
9	1	1	1	1	428
10	1	1	1	1	428
11	1	1	1	1	435
12	1	1	1	1	449
13	1	1	1	1	472
14	1	1	1	1	492
15	1	1	1	1	515
0	1	1	1	1	537
1	1	1	1	1	556
2	1	1	1	1	568
3	1	1	1	1	574
4	1	1	1	1	572
5	1	1	1	1	563
6	1	1	1	1	551
7	1	1	1	1	536
8	1	1	1	1	513
9	1	1	1	1	496
10	1	1	1	1	476
11	1	1	1	1	460
12	1	1	1	1	448
13	1	1	1	1	441
14	1	1	1	1	444
15	1	1	1	1	449
0	1	1	1	1	463
1	1	1	1	1	481
2	1	1	1	1	504
3	1	1	1	1	527
4	1	1	1	1	543
5	1	1	1	1	561
6	1	1	1	1	574
7	1	1	1	1	575
8	1	1	1	1	574
9	1	1	1	1	563
10	1	1	1	1	551
11	1	1	1	1	536
12	1	1	1	1	515
13	1	1	1	1	496
14	1	1	1	1	480
15	1	1	1	1	463
0	1	1	1	1	451
1	1	1	1	1	448
2	1	1	1	1	448
3	1	1	1	1	455
4	1	1	1	1	472
5	1	1	1	1	492
6	1	1	1	1	513
7	1	1	1	1	536
8	1	1	1	1	560
9	1	1	1	1	575
10	1	1	1	1	585
11	1	1	1	1	591
12	1	1	1	1	588
13	1	1	1	1	575
14	1	1	1	1	563
15	1	1	1	1	543
0	1	1	1	1	527
1	1	1	1	1	505
2	1	1	1	1	487
3	1	1	1	1	472
4	1	1	1	1	460
5	1	1	1	1	455
6	1	1	1	1	455
7	1	1	1	1	463
8	1	1	1	1	480
9	1	1	1	1	496
10	1	1	1	1	519
11	1	1	1	1	543
12	1	1	1	1	563
13	1	1	1	1	575
14	1	1	1	1	591
15	1	1	1	1	591
0	1	1	1	1	590
1	1	1	1	1	579
2	1	1	1	1	566
3	1	1	1	1	547
4	1	1	1	1	527
5	1	1	1	1	508
6	1	1	1	1	487
7	1	1	1	1	472
8	1	1	1	1	460
9	1	1	1	1	451
10	1	1	1	1	451
11	1	1	1	1	460
12	1	1	1	1	472
13	1	1	1	1	492
14	1	1	1	1	513
15	1	1	1	1	536
0	1	1	1	1	558
1	1	1	1	1	575
2	1	1	1	1	583
3	1	1	1	1	590
4	1	1	1	1	585
5	1	1	1	1	575
6	1	1	1	1	563
7	1	1	1	1	547
8	1	1	1	1	527
9	1	1	1	1	511
10	1	1	1	1	492
11	1	1	1	1	480
12	1	1	1	1	467
13	1	1	1	1	462
14	1	1	1	1	463
15	1	1	1	1	472
0	1	1	1	1	487
1	1	1	1	1	505
2	1	1	1	1	527
3	1	1	1	1	551
4	1	1	1	1	574
5	1	1	1	1	590
6	1	1	1	1	600
7	1	1	1	1	604
8	1	1	1	1	601
9	1	1	1	1	591
10	1	1	1	1	579
11	1	1	1	1	563
12	1	1	1	1	543
13	1	1	1	1	526
14	1	1	1	1	508
15	1	1	1	1	492
0	1	1	1	1	480
1	1	1	1	1	476
2	1	1	1	1	476
3	1	1	1	1	481
4	1	1	1	1	496
5	1	1	1	1	512
6	1	1	1	1	536
7	1	1	1	1	556
8	1	1	1	1	575
9	1	1	1	1	591
10	1	1	1	1	601
11	1	1	1	1	606
12	1	1	1	1	604
13	1	1	1	1	591
14	1	1	1	1	575
15	1	1	1	1	563
0	1	1	1	1	543
1	1	1	1	1	527
2	1	1	1	1	508
3	1	1	1	1	494
4	1	1	1	1	481
5	1	1	1	1	478
6	1	1	1	1	480
7	1	1	1	1	486
8	1	1	1	1	497
9	1	1	1	1	518
10	1	1	1	1	537
11	1	1	1	1	560
12	1	1	1	1	575
13	1	1	1	1	593
14	1	1	1	1	608
15	1	1	1	1	608
0	1	1	1	1	608
1	1	1	1	1	595
2	1	1	1	1	583
3	1	1	1	1	568
4	1	1	1	1	547
5	1	1	1	1	527
6	1	1	1	1	512
7	1	1	1	1	497
8	1	1	1	1	487
9	1	1	1	1	481
10	1	1	1	1	483
11	1	1	1	1	492
12	1	1	1	1	505
13	1	1	1	1	526
14	1	1	1	1	543
15	1	1	1	1	568
0	1	1	1	1	588
1	1	1	1	1	604
2	1	1	1	1	611
3	1	1	1	1	615
4	1	1	1	1	611
5	1	1	1	1	604
6	1	1	1	1	588
7	1	1	1	1	569
8	1	1	1	1	551
9	1	1	1	1	531
10	1	1	1	1	512
11	1	1	1	1	496
12	1	1	1	1	483
13	1	1	1	1	480
14	1	1	1	1	480
15	1	1	1	1	487
0	1	1	1	1	499
1	1	1	1	1	519
2	1	1	1	1	540
3	1	1	1	1	561
4	1	1	1	1	583
5	1	1	1	1	600
6	1	1	1	1	608
7	1	1	1	1	608
8	1	1	1	1	608
9	1	1	1	1	595
10	1	1	1	1	579
11	1	1	1	1	561
12	1	1	1	1	542
13	1	1	1	1	519
14	1	1	1	1	499
15	1	1	1	1	483
0	1	1	1	1	472
1	1	1	1	1	462
2	1	1	1	1	460
3	1	1	1	1	463
4	1	1	1	1	476
5	1	1	1	1	487
6	1	1	1	1	508
7	1	1	1	1	526
8	1	1	1	1	543
9	1	1	1	1	553
10	1	1	1	1	560
11	1	1	1	1	560
12	1	1	1	1	553
13	1	1	1	1	543
14	1	1	1	1	526
15	1	1	1	1	505
0	1	1	1	1	486
1	1	1	1	1	463
2	1	1	1	1	448
3	1	1	1	1	428
4	1	1	1	1	415
5	1	1	1	1	408
6	1	1	1	1	408
7	1	1	1	1	412
8	1	1	1	1	423
9	1	1	1	1	440
10	1	1	1	1	455
11	1	1	1	1	478
12	1	1	1	1	496
13	1	1	1	1	508
14	1	1	1	1	515
15	1	1	1	1	515
0	1	1	1	1	511
1	1	1	1	1	499
2	1	1	1	1	486
3	1	1	1	1	467
4	1	1	1	1	448
5	1	1	1	1	428
6	1	1	1	1	408
7	1	1	1	1	391
8	1	1	1	1	384
9	1	1	1	1	376
10	1	1	1	1	376
11	1	1	1	1	384
12	1	1	1	1	398
13	1	1	1	1	415
14	1	1	1	1	435
15	1	1	1	1	457
0	1	1	1	1	480
1	1	1	1	1	495
2	1	1	1	1	504
3	1	1	1	1	508
4	1	1	1	1	504
5	1	1	1	1	495
6	1	1	1	1	480
7	1	1	1	1	463
8	1	1	1	1	444
9	1	1	1	1	423
10	1	1	1	1	408
11	1	1	1	1	391
12	1	1	1	1	384
13	1	1	1	1	376
14	1	1	1	1	376
15	1	1	1	1	384
0	1	1	1	1	399
1	1	1	1	1	415
2	1	1	1	1	440
3	1	1	1	1	462
4	1	1	1	1	481
5	1	1	1	1	497
6	1	1	1	1	508
7	1	1	1	1	511
8	1	1	1	1	508
9	1	1	1	1	499
10	1	1	1	1	486
11	1	1	1	1	467
12	1	1	1	1	449
13	1	1	1	1	432
14	1	1	1	1	414
15	1	1	1	1	399
0	1	1	1	1	387
1	1	1	1	1	384
2	1	1	1	1	384
3	1	1	1	1	391
4	1	1	1	1	408
5	1	1	1	1	428
6	1	1	1	1	451
7	1	1	1	1	476
8	1	1	1	1	496
9	1	1	1	1	512
10	1	1	1	1	524
11	1	1	1	1	527
12	1	1	1	1	524
13	1	1	1	1	515
14	1	1	1	1	504
15	1	1	1	1	483
0	1	1	1	1	465
1	1	1	1	1	448
2	1	1	1	1	432
3	1	1	1	1	415
4	1	1	1	1	408
5	1	1	1	1	399
6	1	1	1	1	403
7	1	1	1	1	412
8	1	1	1	1	423
9	1	1	1	1	448
10	1	1	1	1	465
11	1	1	1	1	487
12	1	1	1	1	510
13	1	1	1	1	524
14	1	1	1	1	536
15	1	1	1	1	536
0	1	1	1	1	531
1	1	1	1	1	524
2	1	1	1	1	508
3	1	1	1	1	492
4	1	1	1	1	472
5	1	1	1	1	455
6	1	1	1	1	438
7	1	1	1	1	423
8	1	1	1	1	414
9	1	1	1	1	409
10	1	1	1	1	412
11	1	1	1	1	419
12	1	1	1	1	435
13	1	1	1	1	455
14	1	1	1	1	476
15	1	1	1	1	496
0	1	1	1	1	515
1	1	1	1	1	531
2	1	1	1	1	540
3	1	1	1	1	543
4	1	1	1	1	537
5	1	1	1	1	527
6	1	1	1	1	512
7	1	1	1	1	496
8	1	1	1	1	476
9	1	1	1	1	455
10	1	1	1	1	440
11	1	1	1	1	423
12	1	1	1	1	412
13	1	1	1	1	408
14	1	1	1	1	408
15	1	1	1	1	415
0	1	1	1	1	428
1	1	1	1	1	448
2	1	1	1	1	472
3	1	1	1	1	492
4	1	1	1	1	512
5	1	1	1	1	527
6	1	1	1	1	540
7	1	1	1	1	543
8	1	1	1	1	540
9	1	1	1	1	531
10	1	1	1	1	518
11	1	1	1	1	499
12	1	1	1	1	480
13	1	1	1	1	462
14	1	1	1	1	444
15	1	1	1	1	430
0	1	1	1	1	415
1	1	1	1	1	412
2	1	1	1	1	414
3	1	1	1	1	419
4	1	1	1	1	432
5	1	1	1	1	451
6	1	1	1	1	472
7	1	1	1	1	494
8	1	1	1	1	512
9	1	1	1	1	527
10	1	1	1	1	536
11	1	1	1	1	536
12	1	1	1	1	534
13	1	1	1	1	524
14	1	1	1	1	508
15	1	1	1	1	489
0	1	1	1	1	472
1	1	1	1	1	449
2	1	1	1	1	432
3	1	1	1	1	415
4	1	1	1	1	406
5	1	1	1	1	399
6	1	1	1	1	399
7	1	1	1	1	408
8	1	1	1	1	419
9	1	1	1	1	440
10	1	1	1	1	462
11	1	1	1	1	483
12	1	1	1	1	504
13	1	1	1	1	519
14	1	1	1	1	527
15	1	1	1	1	531
0	1	1	1	1	527
1	1	1	1	1	515
2	1	1	1	1	499
3	1	1	1	1	481
4	1	1	1	1	462
5	1	1	1	1	440
6	1	1	1	1	423
7	1	1	1	1	408
8	1	1	1	1	396
9	1	1	1	1	387
10	1	1	1	1	391
11	1	1	1	1	399
12	1	1	1	1	412
13	1	1	1	1	432
14	1	1	1	1	455
15	1	1	1	1	478
0	1	1	1	1	496
1	1	1	1	1	513
2	1	1	1	1	524
3	1	1	1	1	527
4	1	1	1	1	521
5	1	1	1	1	512
6	1	1	1	1	497
7	1	1	1	1	480
8	1	1	1	1	460
9	1	1	1	1	440
10	1	1	1	1	422
11	1	1	1	1	408
12	1	1	1	1	393
13	1	1	1	1	387
14	1	1	1	1	390
15	1	1	1	1	396
0	1	1	1	1	409
1	1	1	1	1	428
2	1	1	1	1	449
3	1	1	1	1	472
4	1	1	1	1	492
5	1	1	1	1	508
6	1	1	1	1	518
7	1	1	1	1	519
8	1	1	1	1	515
9	1	1	1	1	505
10	1	1	1	1	492
11	1	1	1	1	476
12	1	1	1	1	455
13	1	1	1	1	435
14	1	1	1	1	419
15	1	1	1	1	403
0	1	1	1	1	391
1	1	1	1	1	387
2	1	1	1	1	391
3	1	1	1	1	398
4	1	1	1	1	412
5	1	1	1	1	430
6	1	1	1	1	449
7	1	1	1	1	472
8	1	1	1	1	487
9	1	1	1	1	504
10	1	1	1	1	512
11	1	1	1	1	513
12	1	1	1	1	508
13	1	1	1	1	497
14	1	1	1	1	483
15	1	1	1	1	463
0	1	1	1	1	448
1	1	1	1	1	423
2	1	1	1	1	408
3	1	1	1	1	391
4	1	1	1	1	384
5	1	1	1	1	376
6	1	1	1	1	376
7	1	1	1	1	384
8	1	1	1	1	399
9	1	1	1	1	415
10	1	1	1	1	440
11	1	1	1	1	460
12	1	1	1	1	480
13	1	1	1	1	494
14	1	1	1	1	504
15	1	1	1	1	504
0	1	1	1	1	502
1	1	1	1	1	492
2	1	1	1	1	476
3	1	1	1	1	460
4	1	1	1	1	440
5	1	1	1	1	419
6	1	1	1	1	401
7	1	1	1	1	385
8	1	1	1	1	376
9	1	1	1	1	369
10	1	1	1	1	369
11	1	1	1	1	377
12	1	1	1	1	391
13	1	1	1	1	409
14	1	1	1	1	432
15	1	1	1	1	451
0	1	1	1	1	472
1	1	1	1	1	487
2	1	1	1	1	496
3	1	1	1	1	496
4	1	1	1	1	492
5	1	1	1	1	480
6	1	1	1	1	465
7	1	1	1	1	448
8	1	1	1	1	430
9	1	1	1	1	408
10	1	1	1	1	391
11	1	1	1	1	376
12	1	1	1	1	364
13	1	1	1	1	358
14	1	1	1	1	359
15	1	1	1	1	364
0	1	1	1	1	376
1	1	1	1	1	396
2	1	1	1	1	415
3	1	1	1	1	435
4	1	1	1	1	455
5	1	1	1	1	472
6	1	1	1	1	480
7	1	1	1	1	481
8	1	1	1	1	480
9	1	1	1	1	467
10	1	1	1	1	454
11	1	1	1	1	435
12	1	1	1	1	415
13	1	1	1	1	399
14	1	1	1	1	384
15	1	1	1	1	366
0	1	1	1	1	355
1	1	1	1	1	352
2	1	1	1	1	352
3	1	1	1	1	359
4	1	1	1	1	376
5	1	1	1	1	391
6	1	1	1	1	415
7	1	1	1	1	440
8	1	1	1	1	455
9	1	1	1	1	473
10	1	1	1	1	483
11	1	1	1	1	487
12	1	1	1	1	483
13	1	1	1	1	472
14	1	1	1	1	460
15	1	1	1	1	440
0	1	1	1	1	423
1	1	1	1	1	403
2	1	1	1	1	385
3	1	1	1	1	371
4	1	1	1	1	359
5	1	1	1	1	358
6	1	1	1	1	359
7	1	1	1	1	368
8	1	1	1	1	384
9	1	1	1	1	406
10	1	1	1	1	428
11	1	1	1	1	451
12	1	1	1	1	472
13	1	1	1	1	487
14	1	1	1	1	499
15	1	1	1	1	504
0	1	1	1	1	497
1	1	1	1	1	487
2	1	1	1	1	476
3	1	1	1	1	455
4	1	1	1	1	440
5	1	1	1	1	419
6	1	1	1	1	401
7	1	1	1	1	387
8	1	1	1	1	377
9	1	1	1	1	376
10	1	1	1	1	376
11	1	1	1	1	384
12	1	1	1	1	399
13	1	1	1	1	419
14	1	1	1	1	441
15	1	1	1	1	463
0	1	1	1	1	483
1	1	1	1	1	499
2	1	1	1	1	510
3	1	1	1	1	511
4	1	1	1	1	508
5	1	1	1	1	496
6	1	1	1	1	480
7	1	1	1	1	463
8	1	1	1	1	444
9	1	1	1	1	423
10	1	1	1	1	408
11	1	1	1	1	391
12	1	1	1	1	384
13	1	1	1	1	376
14	1	1	1	1	376
15	1	1	1	1	384
0	1	1	1	1	398
1	1	1	1	1	415
2	1	1	1	1	440
3	1	1	1	1	462
4	1	1	1	1	481
5	1	1	1	1	496
6	1	1	1	1	508
7	1	1	1	1	511
8	1	1	1	1	508
9	1	1	1	1	496
10	1	1	1	1	481
11	1	1	1	1	463
12	1	1	1	1	444
13	1	1	1	1	423
14	1	1	1	1	406
15	1	1	1	1	390
0	1	1	1	1	376
1	1	1	1	1	369
2	1	1	1	1	369
3	1	1	1	1	376
4	1	1	1	1	387
5	1	1	1	1	408
6	1	1	1	1	423
7	1	1	1	1	448
8	1	1	1	1	463
9	1	1	1	1	478
10	1	1	1	1	486
11	1	1	1	1	487
12	1	1	1	1	483
13	1	1	1	1	476
14	1	1	1	1	462
15	1	1	1	1	448
0	1	1	1	1	430
1	1	1	1	1	414
2	1	1	1	1	399
3	1	1	1	1	385
4	1	1	1	1	380
5	1	1	1	1	376
6	1	1	1	1	384
7	1	1	1	1	391
8	1	1	1	1	408
9	1	1	1	1	430
10	1	1	1	1	451
11	1	1	1	1	478
12	1	1	1	1	499
13	1	1	1	1	515
14	1	1	1	1	527
15	1	1	1	1	536
0	1	1	1	1	531
1	1	1	1	1	526
2	1	1	1	1	513
3	1	1	1	1	499
4	1	1	1	1	483
5	1	1	1	1	467
6	1	1	1	1	455
7	1	1	1	1	448
8	1	1	1	1	441
9	1	1	1	1	444
10	1	1	1	1	454
11	1	1	1	1	472
12	1	1	1	1	494
13	1	1	1	1	519
14	1	1	1	1	551
15	1	1	1	1	583
0	1	1	1	1	611
1	1	1	1	1	638
2	1	1	1	1	655
3	1	1	1	1	668
4	1	1	1	1	671
5	1	1	1	1	671
6	1	1	1	1	664
7	1	1	1	1	652
8	1	1	1	1	638
9	1	1	1	1	617
10	1	1	1	1	600
11	1	1	1	1	575
12	1	1	1	1	560
13	1	1	1	1	543
14	1	1	1	1	534
15	1	1	1	1	527
0	1	1	1	1	524
1	1	1	1	1	524
2	1	1	1	1	524
3	1	1	1	1	526
4	1	1	1	1	521
5	1	1	1	1	513
6	1	1	1	1	502
7	1	1	1	1	481
8	1	1	1	1	455
9	1	1	1	1	428
10	1	1	1	1	396
11	1	1	1	1	364
12	1	1	1	1	332
13	1	1	1	1	304
14	1	1	1	1	280
15	1	1	1	1	255
0	1	1	1	1	248
1	1	1	1	1	243
2	1	1	1	1	248
3	1	1	1	1	263
4	1	1	1	1	284
5	1	1	1	1	312
6	1	1	1	1	344
7	1	1	1	1	376
8	1	1	1	1	403
9	1	1	1	1	432
10	1	1	1	1	448
11	1	1	1	1	462
12	1	1	1	1	463
13	1	1	1	1	463
14	1	1	1	1	455
15	1	1	1	1	444
0	1	1	1	1	432
1	1	1	1	1	415
2	1	1	1	1	399
3	1	1	1	1	390
4	1	1	1	1	384
5	1	1	1	1	376
6	1	1	1	1	377
7	1	1	1	1	385
8	1	1	1	1	399
9	1	1	1	1	415
10	1	1	1	1	438
11	1	1	1	1	455
12	1	1	1	1	476
13	1	1	1	1	487
14	1	1	1	1	496
15	1	1	1	1	499
0	1	1	1	1	496
1	1	1	1	1	483
2	1	1	1	1	472
3	1	1	1	1	455
4	1	1	1	1	435
5	1	1	1	1	415
6	1	1	1	1	399
7	1	1	1	1	387
8	1	1	1	1	377
9	1	1	1	1	374
10	1	1	1	1	376
11	1	1	1	1	384
12	1	1	1	1	398
13	1	1	1	1	415
14	1	1	1	1	435
15	1	1	1	1	455
0	1	1	1	1	476
1	1	1	1	1	487
2	1	1	1	1	496
3	1	1	1	1	497
4	1	1	1	1	494
5	1	1	1	1	483
6	1	1	1	1	467
7	1	1	1	1	451
8	1	1	1	1	432
9	1	1	1	1	415
10	1	1	1	1	398
11	1	1	1	1	384
12	1	1	1	1	376
13	1	1	1	1	369
14	1	1	1	1	371
15	1	1	1	1	384
0	1	1	1	1	396
1	1	1	1	1	414
2	1	1	1	1	433
3	1	1	1	1	455
4	1	1	1	1	472
5	1	1	1	1	486
6	1	1	1	1	492
7	1	1	1	1	492
8	1	1	1	1	487
9	1	1	1	1	476
10	1	1	1	1	460
11	1	1	1	1	440
12	1	1	1	1	423
13	1	1	1	1	403
14	1	1	1	1	387
15	1	1	1	1	376
0	1	1	1	1	368
1	1	1	1	1	364
2	1	1	1	1	368
3	1	1	1	1	376
4	1	1	1	1	391
5	1	1	1	1	414
6	1	1	1	1	435
7	1	1	1	1	455
8	1	1	1	1	476
9	1	1	1	1	492
10	1	1	1	1	499
11	1	1	1	1	499
12	1	1	1	1	496
13	1	1	1	1	483
14	1	1	1	1	472
15	1	1	1	1	451
0	1	1	1	1	432
1	1	1	1	1	414
2	1	1	1	1	396
3	1	1	1	1	384
4	1	1	1	1	371
5	1	1	1	1	368
6	1	1	1	1	368
7	1	1	1	1	376
8	1	1	1	1	391
9	1	1	1	1	409
10	1	1	1	1	432
11	1	1	1	1	454
12	1	1	1	1	472
13	1	1	1	1	487
14	1	1	1	1	496
15	1	1	1	1	499
0	1	1	1	1	496
1	1	1	1	1	483
2	1	1	1	1	472
3	1	1	1	1	451
4	1	1	1	1	433
5	1	1	1	1	415
6	1	1	1	1	398
7	1	1	1	1	384
8	1	1	1	1	376
9	1	1	1	1	369
10	1	1	1	1	371
11	1	1	1	1	384
12	1	1	1	1	393
13	1	1	1	1	414
14	1	1	1	1	433
15	1	1	1	1	455
0	1	1	1	1	472
1	1	1	1	1	487
2	1	1	1	1	496
3	1	1	1	1	496
4	1	1	1	1	492
5	1	1	1	1	480
6	1	1	1	1	465
7	1	1	1	1	449
8	1	1	1	1	432
9	1	1	1	1	414
10	1	1	1	1	398
11	1	1	1	1	384
12	1	1	1	1	376
13	1	1	1	1	371
14	1	1	1	1	376
15	1	1	1	1	385
0	1	1	1	1	399
1	1	1	1	1	423
2	1	1	1	1	444
3	1	1	1	1	465
4	1	1	1	1	487
5	1	1	1	1	504
6	1	1	1	1	511
7	1	1	1	1	512
8	1	1	1	1	508
9	1	1	1	1	497
10	1	1	1	1	483
11	1	1	1	1	465
12	1	1	1	1	448
13	1	1	1	1	430
14	1	1	1	1	412
15	1	1	1	1	399
0	1	1	1	1	390
1	1	1	1	1	385
2	1	1	1	1	390
3	1	1	1	1	399
4	1	1	1	1	415
5	1	1	1	1	435
6	1	1	1	1	457
7	1	1	1	1	480
8	1	1	1	1	502
9	1	1	1	1	515
10	1	1	1	1	527
11	1	1	1	1	527
12	1	1	1	1	526
13	1	1	1	1	515
14	1	1	1	1	504
15	1	1	1	1	486
0	1	1	1	1	467
1	1	1	1	1	448
2	1	1	1	1	432
3	1	1	1	1	419
4	1	1	1	1	412
5	1	1	1	1	408
6	1	1	1	1	409
7	1	1	1	1	419
8	1	1	1	1	433
9	1	1	1	1	454
10	1	1	1	1	476
11	1	1	1	1	497
12	1	1	1	1	519
13	1	1	1	1	536
14	1	1	1	1	543
15	1	1	1	1	547
0	1	1	1	1	543
1	1	1	1	1	536
2	1	1	1	1	521
3	1	1	1	1	505
4	1	1	1	1	487
5	1	1	1	1	472
6	1	1	1	1	455
7	1	1	1	1	440
8	1	1	1	1	432
9	1	1	1	1	430
10	1	1	1	1	432
11	1	1	1	1	440
12	1	1	1	1	455
13	1	1	1	1	478
14	1	1	1	1	499
15	1	1	1	1	519
0	1	1	1	1	543
1	1	1	1	1	560
2	1	1	1	1	568
3	1	1	1	1	572
4	1	1	1	1	568
5	1	1	1	1	560
6	1	1	1	1	547
7	1	1	1	1	531
8	1	1	1	1	515
9	1	1	1	1	497
10	1	1	1	1	483
11	1	1	1	1	470
12	1	1	1	1	460
13	1	1	1	1	455
14	1	1	1	1	455
15	1	1	1	1	463
0	1	1	1	1	476
1	1	1	1	1	494
2	1	1	1	1	512
3	1	1	1	1	534
4	1	1	1	1	551
5	1	1	1	1	563
6	1	1	1	1	574
7	1	1	1	1	575
8	1	1	1	1	572
9	1	1	1	1	561
10	1	1	1	1	550
11	1	1	1	1	536
12	1	1	1	1	518
13	1	1	1	1	499
14	1	1	1	1	487
15	1	1	1	1	473
0	1	1	1	1	465
1	1	1	1	1	463
2	1	1	1	1	467
3	1	1	1	1	478
4	1	1	1	1	492
5	1	1	1	1	511
6	1	1	1	1	531
7	1	1	1	1	551
8	1	1	1	1	568
9	1	1	1	1	583
10	1	1	1	1	588
11	1	1	1	1	588
12	1	1	1	1	579
13	1	1	1	1	568
14	1	1	1	1	551
15	1	1	1	1	529
0	1	1	1	1	508
1	1	1	1	1	487
2	1	1	1	1	465
3	1	1	1	1	448
4	1	1	1	1	435
5	1	1	1	1	430
6	1	1	1	1	428
7	1	1	1	1	433
8	1	1	1	1	448
9	1	1	1	1	463
10	1	1	1	1	481
11	1	1	1	1	499
12	1	1	1	1	519
13	1	1	1	1	529
14	1	1	1	1	536
15	1	1	1	1	536
0	1	1	1	1	529
1	1	1	1	1	519
2	1	1	1	1	504
3	1	1	1	1	481
4	1	1	1	1	462
5	1	1	1	1	440
6	1	1	1	1	422
7	1	1	1	1	403
8	1	1	1	1	391
9	1	1	1	1	384
10	1	1	1	1	384
11	1	1	1	1	391
12	1	1	1	1	403
13	1	1	1	1	422
14	1	1	1	1	440
15	1	1	1	1	460
0	1	1	1	1	480
1	1	1	1	1	491
2	1	1	1	1	496
3	1	1	1	1	497
4	1	1	1	1	492
5	1	1	1	1	480
6	1	1	1	1	465
7	1	1	1	1	448
8	1	1	1	1	432
9	1	1	1	1	412
10	1	1	1	1	396
11	1	1	1	1	384
12	1	1	1	1	371
13	1	1	1	1	368
14	1	1	1	1	369
15	1	1	1	1	377
0	1	1	1	1	391
1	1	1	1	1	412
2	1	1	1	1	432
3	1	1	1	1	454
4	1	1	1	1	472
5	1	1	1	1	487
6	1	1	1	1	496
7	1	1	1	1	496
8	1	1	1	1	492
9	1	1	1	1	480
10	1	1	1	1	465
11	1	1	1	1	448
12	1	1	1	1	430
13	1	1	1	1	412
14	1	1	1	1	391
15	1	1	1	1	380
0	1	1	1	1	369
1	1	1	1	1	366
2	1	1	1	1	368
3	1	1	1	1	376
4	1	1	1	1	391
5	1	1	1	1	409
6	1	1	1	1	432
7	1	1	1	1	451
8	1	1	1	1	472
9	1	1	1	1	486
10	1	1	1	1	494
11	1	1	1	1	494
12	1	1	1	1	487
13	1	1	1	1	478
14	1	1	1	1	463
15	1	1	1	1	444
0	1	1	1	1	425
1	1	1	1	1	408
2	1	1	1	1	391
3	1	1	1	1	377
4	1	1	1	1	368
5	1	1	1	1	366
6	1	1	1	1	368
7	1	1	1	1	376
8	1	1	1	1	391
9	1	1	1	1	412
10	1	1	1	1	432
11	1	1	1	1	455
12	1	1	1	1	472
13	1	1	1	1	487
14	1	1	1	1	494
15	1	1	1	1	494
0	1	1	1	1	487
1	1	1	1	1	476
2	1	1	1	1	460
3	1	1	1	1	440
4	1	1	1	1	422
5	1	1	1	1	399
6	1	1	1	1	384
7	1	1	1	1	368
8	1	1	1	1	355
9	1	1	1	1	352
10	1	1	1	1	352
11	1	1	1	1	359
12	1	1	1	1	376
13	1	1	1	1	396
14	1	1	1	1	415
15	1	1	1	1	440
0	1	1	1	1	455
1	1	1	1	1	472
2	1	1	1	1	481
3	1	1	1	1	483
4	1	1	1	1	480
5	1	1	1	1	472
6	1	1	1	1	455
7	1	1	1	1	440
8	1	1	1	1	423
9	1	1	1	1	403
10	1	1	1	1	387
11	1	1	1	1	376
12	1	1	1	1	366
13	1	1	1	1	359
14	1	1	1	1	364
15	1	1	1	1	371
0	1	1	1	1	387
1	1	1	1	1	408
2	1	1	1	1	428
3	1	1	1	1	448
4	1	1	1	1	467
5	1	1	1	1	480
6	1	1	1	1	487
7	1	1	1	1	489
8	1	1	1	1	483
9	1	1	1	1	473
10	1	1	1	1	460
11	1	1	1	1	440
12	1	1	1	1	423
13	1	1	1	1	403
14	1	1	1	1	385
15	1	1	1	1	371
0	1	1	1	1	364
1	1	1	1	1	359
2	1	1	1	1	359
3	1	1	1	1	369
4	1	1	1	1	384
5	1	1	1	1	403
6	1	1	1	1	423
7	1	1	1	1	448
8	1	1	1	1	463
9	1	1	1	1	480
10	1	1	1	1	486
11	1	1	1	1	487
12	1	1	1	1	480
13	1	1	1	1	470
14	1	1	1	1	454
15	1	1	1	1	435
0	1	1	1	1	415
1	1	1	1	1	396
2	1	1	1	1	380
3	1	1	1	1	364
4	1	1	1	1	353
5	1	1	1	1	350
6	1	1	1	1	352
7	1	1	1	1	359
8	1	1	1	1	371
9	1	1	1	1	391
10	1	1	1	1	412
11	1	1	1	1	432
12	1	1	1	1	451
13	1	1	1	1	465
14	1	1	1	1	476
15	1	1	1	1	478
0	1	1	1	1	472
1	1	1	1	1	463
2	1	1	1	1	448
3	1	1	1	1	432
4	1	1	1	1	414
5	1	1	1	1	396
6	1	1	1	1	377
7	1	1	1	1	364
8	1	1	1	1	353
9	1	1	1	1	352
10	1	1	1	1	352
11	1	1	1	1	359
12	1	1	1	1	376
13	1	1	1	1	391
14	1	1	1	1	414
15	1	1	1	1	433
0	1	1	1	1	451
1	1	1	1	1	463
2	1	1	1	1	472
3	1	1	1	1	472
4	1	1	1	1	465
5	1	1	1	1	455
6	1	1	1	1	440
7	1	1	1	1	422
8	1	1	1	1	403
9	1	1	1	1	384
10	1	1	1	1	368
11	1	1	1	1	355
12	1	1	1	1	345
13	1	1	1	1	344
14	1	1	1	1	348
15	1	1	1	1	358
0	1	1	1	1	374
1	1	1	1	1	393
2	1	1	1	1	415
3	1	1	1	1	440
4	1	1	1	1	460
5	1	1	1	1	472
6	1	1	1	1	481
7	1	1	1	1	483
8	1	1	1	1	480
9	1	1	1	1	467
10	1	1	1	1	451
11	1	1	1	1	435
12	1	1	1	1	415
13	1	1	1	1	398
14	1	1	1	1	384
15	1	1	1	1	368
0	1	1	1	1	359
1	1	1	1	1	355
2	1	1	1	1	359
3	1	1	1	1	368
4	1	1	1	1	384
5	1	1	1	1	408
6	1	1	1	1	430
7	1	1	1	1	451
8	1	1	1	1	472
9	1	1	1	1	487
10	1	1	1	1	496
11	1	1	1	1	499
12	1	1	1	1	496
13	1	1	1	1	487
14	1	1	1	1	472
15	1	1	1	1	455
0	1	1	1	1	440
1	1	1	1	1	419
2	1	1	1	1	408
3	1	1	1	1	391
4	1	1	1	1	384
5	1	1	1	1	384
6	1	1	1	1	384
7	1	1	1	1	391
8	1	1	1	1	408
9	1	1	1	1	428
10	1	1	1	1	448
11	1	1	1	1	467
12	1	1	1	1	487
13	1	1	1	1	499
14	1	1	1	1	508
15	1	1	1	1	508
0	1	1	1	1	504
1	1	1	1	1	494
2	1	1	1	1	480
3	1	1	1	1	463
4	1	1	1	1	444
5	1	1	1	1	428
6	1	1	1	1	412
7	1	1	1	1	399
8	1	1	1	1	390
9	1	1	1	1	387
10	1	1	1	1	391
11	1	1	1	1	399
12	1	1	1	1	415
13	1	1	1	1	435
14	1	1	1	1	455
15	1	1	1	1	480
0	1	1	1	1	496
1	1	1	1	1	511
2	1	1	1	1	518
3	1	1	1	1	519
4	1	1	1	1	512
5	1	1	1	1	504
6	1	1	1	1	487
7	1	1	1	1	467
8	1	1	1	1	448
9	1	1	1	1	432
10	1	1	1	1	415
11	1	1	1	1	399
12	1	1	1	1	391
13	1	1	1	1	391
14	1	1	1	1	396
15	1	1	1	1	408
0	1	1	1	1	423
1	1	1	1	1	444
2	1	1	1	1	465
3	1	1	1	1	487
4	1	1	1	1	510
5	1	1	1	1	526
6	1	1	1	1	536
7	1	1	1	1	536
8	1	1	1	1	536
9	1	1	1	1	524
10	1	1	1	1	511
11	1	1	1	1	496
12	1	1	1	1	478
13	1	1	1	1	460
14	1	1	1	1	444
15	1	1	1	1	430
0	1	1	1	1	419
1	1	1	1	1	415
2	1	1	1	1	419
3	1	1	1	1	428
4	1	1	1	1	444
5	1	1	1	1	463
6	1	1	1	1	483
7	1	1	1	1	505
8	1	1	1	1	526
9	1	1	1	1	540
10	1	1	1	1	547
11	1	1	1	1	550
12	1	1	1	1	543
13	1	1	1	1	536
14	1	1	1	1	519
15	1	1	1	1	504
0	1	1	1	1	487
1	1	1	1	1	467
2	1	1	1	1	451
3	1	1	1	1	440
4	1	1	1	1	430
5	1	1	1	1	423
6	1	1	1	1	428
7	1	1	1	1	440
8	1	1	1	1	451
9	1	1	1	1	472
10	1	1	1	1	494
11	1	1	1	1	513
12	1	1	1	1	531
13	1	1	1	1	547
14	1	1	1	1	556
15	1	1	1	1	556
0	1	1	1	1	551
1	1	1	1	1	540
2	1	1	1	1	526
3	1	1	1	1	508
4	1	1	1	1	487
5	1	1	1	1	472
6	1	1	1	1	451
7	1	1	1	1	440
8	1	1	1	1	432
9	1	1	1	1	428
10	1	1	1	1	430
11	1	1	1	1	440
12	1	1	1	1	455
13	1	1	1	1	472
14	1	1	1	1	494
15	1	1	1	1	513
0	1	1	1	1	531
1	1	1	1	1	543
2	1	1	1	1	551
3	1	1	1	1	550
4	1	1	1	1	543
5	1	1	1	1	531
6	1	1	1	1	515
7	1	1	1	1	496
8	1	1	1	1	480
9	1	1	1	1	460
10	1	1	1	1	440
11	1	1	1	1	428
12	1	1	1	1	415
13	1	1	1	1	412
14	1	1	1	1	415
15	1	1	1	1	423
0	1	1	1	1	435
1	1	1	1	1	455
2	1	1	1	1	476
3	1	1	1	1	496
4	1	1	1	1	511
5	1	1	1	1	524
6	1	1	1	1	531
7	1	1	1	1	531
8	1	1	1	1	527
9	1	1	1	1	515
10	1	1	1	1	504
11	1	1	1	1	483
12	1	1	1	1	467
13	1	1	1	1	449
14	1	1	1	1	433
15	1	1	1	1	422
0	1	1	1	1	412
1	1	1	1	1	408
2	1	1	1	1	412
3	1	1	1	1	417
4	1	1	1	1	432
5	1	1	1	1	449
6	1	1	1	1	472
7	1	1	1	1	487
8	1	1	1	1	505
9	1	1	1	1	519
10	1	1	1	1	526
11	1	1	1	1	526
12	1	1	1	1	519
13	1	1	1	1	508
14	1	1	1	1	492
15	1	1	1	1	473
0	1	1	1	1	455
1	1	1	1	1	435
2	1	1	1	1	419
3	1	1	1	1	408
4	1	1	1	1	399
5	1	1	1	1	398
6	1	1	1	1	399
7	1	1	1	1	412
8	1	1	1	1	430
9	1	1	1	1	451
10	1	1	1	1	476
11	1	1	1	1	499
12	1	1	1	1	519
13	1	1	1	1	540
14	1	1	1	1	551
15	1	1	1	1	558
0	1	1	1	1	556
1	1	1	1	1	551
2	1	1	1	1	543
3	1	1	1	1	531
4	1	1	1	1	519
5	1	1	1	1	510
6	1	1	1	1	499
7	1	1	1	1	496
8	1	1	1	1	494
9	1	1	1	1	497
10	1	1	1	1	510
11	1	1	1	1	527
12	1	1	1	1	551
13	1	1	1	1	575
14	1	1	1	1	608
15	1	1	1	1	636
0	1	1	1	1	659
1	1	1	1	1	679
2	1	1	1	1	696
3	1	1	1	1	700
4	1	1	1	1	696
5	1	1	1	1	684
6	1	1	1	1	664
7	1	1	1	1	639
8	1	1	1	1	611
9	1	1	1	1	575
10	1	1	1	1	547
11	1	1	1	1	515
12	1	1	1	1	486
13	1	1	1	1	462
14	1	1	1	1	440
15	1	1	1	1	428
0	1	1	1	1	419
1	1	1	1	1	415
2	1	1	1	1	415
3	1	1	1	1	415
4	1	1	1	1	415
5	1	1	1	1	415
6	1	1	1	1	409
7	1	1	1	1	399
8	1	1	1	1	387
9	1	1	1	1	371
10	1	1	1	1	355
11	1	1	1	1	339
12	1	1	1	1	323
13	1	1	1	1	312
14	1	1	1	1	302
15	1	1	1	1	295
0	1	1	1	1	295
1	1	1	1	1	300
2	1	1	1	1	312
3	1	1	1	1	332
4	1	1	1	1	355
5	1	1	1	1	384
6	1	1	1	1	414
7	1	1	1	1	444
8	1	1	1	1	470
9	1	1	1	1	489
10	1	1	1	1	504
11	1	1	1	1	512
12	1	1	1	1	512
13	1	1	1	1	508
14	1	1	1	1	496
15	1	1	1	1	481
0	1	1	1	1	463
1	1	1	1	1	448
2	1	1	1	1	432
3	1	1	1	1	419
4	1	1	1	1	409
5	1	1	1	1	408
6	1	1	1	1	408
7	1	1	1	1	415
8	1	1	1	1	432
9	1	1	1	1	449
10	1	1	1	1	472
11	1	1	1	1	492
12	1	1	1	1	510
13	1	1	1	1	521
14	1	1	1	1	527
15	1	1	1	1	531
0	1	1	1	1	527
1	1	1	1	1	515
2	1	1	1	1	504
3	1	1	1	1	486
4	1	1	1	1	467
5	1	1	1	1	449
6	1	1	1	1	435
7	1	1	1	1	423
8	1	1	1	1	415
9	1	1	1	1	412
10	1	1	1	1	415
11	1	1	1	1	425
12	1	1	1	1	440
13	1	1	1	1	462
14	1	1	1	1	481
15	1	1	1	1	504
0	1	1	1	1	519
1	1	1	1	1	536
2	1	1	1	1	542
3	1	1	1	1	542
4	1	1	1	1	536
5	1	1	1	1	524
6	1	1	1	1	510
7	1	1	1	1	492
8	1	1	1	1	472
9	1	1	1	1	455
10	1	1	1	1	440
11	1	1	1	1	425
12	1	1	1	1	415
13	1	1	1	1	415
14	1	1	1	1	419
15	1	1	1	1	432
0	1	1	1	1	448
1	1	1	1	1	472
2	1	1	1	1	494
3	1	1	1	1	515
4	1	1	1	1	536
5	1	1	1	1	551
6	1	1	1	1	560
7	1	1	1	1	560
8	1	1	1	1	556
9	1	1	1	1	547
10	1	1	1	1	531
11	1	1	1	1	515
12	1	1	1	1	496
13	1	1	1	1	480
14	1	1	1	1	463
15	1	1	1	1	449
0	1	1	1	1	440
1	1	1	1	1	440
2	1	1	1	1	440
3	1	1	1	1	451
4	1	1	1	1	465
5	1	1	1	1	487
6	1	1	1	1	508
7	1	1	1	1	529
8	1	1	1	1	547
9	1	1	1	1	563
10	1	1	1	1	572
11	1	1	1	1	572
12	1	1	1	1	568
13	1	1	1	1	560
14	1	1	1	1	543
15	1	1	1	1	527
0	1	1	1	1	510
1	1	1	1	1	492
2	1	1	1	1	476
3	1	1	1	1	463
4	1	1	1	1	455
5	1	1	1	1	454
6	1	1	1	1	455
7	1	1	1	1	467
8	1	1	1	1	483
9	1	1	1	1	504
10	1	1	1	1	527
11	1	1	1	1	547
12	1	1	1	1	568
13	1	1	1	1	582
14	1	1	1	1	590
15	1	1	1	1	591
0	1	1	1	1	588
1	1	1	1	1	575
2	1	1	1	1	561
3	1	1	1	1	543
4	1	1	1	1	527
5	1	1	1	1	508
6	1	1	1	1	487
7	1	1	1	1	476
8	1	1	1	1	463
9	1	1	1	1	460
10	1	1	1	1	462
11	1	1	1	1	472
12	1	1	1	1	483
13	1	1	1	1	502
14	1	1	1	1	519
15	1	1	1	1	542
0	1	1	1	1	560
1	1	1	1	1	574
2	1	1	1	1	579
3	1	1	1	1	582
4	1	1	1	1	575
5	1	1	1	1	568
6	1	1	1	1	551
7	1	1	1	1	536
8	1	1	1	1	519
9	1	1	1	1	499
10	1	1	1	1	483
11	1	1	1	1	472
12	1	1	1	1	462
13	1	1	1	1	455
14	1	1	1	1	460
15	1	1	1	1	470
0	1	1	1	1	483
1	1	1	1	1	504
2	1	1	1	1	526
3	1	1	1	1	543
4	1	1	1	1	563
5	1	1	1	1	575
6	1	1	1	1	583
7	1	1	1	1	583
8	1	1	1	1	582
9	1	1	1	1	572
10	1	1	1	1	558
11	1	1	1	1	540
12	1	1	1	1	524
13	1	1	1	1	505
14	1	1	1	1	492
15	1	1	1	1	480
0	1	1	1	1	472
1	1	1	1	1	470
2	1	1	1	1	472
3	1	1	1	1	483
4	1	1	1	1	499
5	1	1	1	1	519
6	1	1	1	1	543
7	1	1	1	1	563
8	1	1	1	1	582
9	1	1	1	1	595
10	1	1	1	1	601
11	1	1	1	1	601
12	1	1	1	1	595
13	1	1	1	1	583
14	1	1	1	1	568
15	1	1	1	1	551
0	1	1	1	1	529
1	1	1	1	1	511
2	1	1	1	1	494
3	1	1	1	1	480
4	1	1	1	1	472
5	1	1	1	1	463
6	1	1	1	1	467
7	1	1	1	1	478
8	1	1	1	1	492
9	1	1	1	1	511
10	1	1	1	1	531
11	1	1	1	1	551
12	1	1	1	1	568
13	1	1	1	1	583
14	1	1	1	1	590
15	1	1	1	1	590
0	1	1	1	1	583
1	1	1	1	1	574
2	1	1	1	1	560
3	1	1	1	1	542
4	1	1	1	1	524
5	1	1	1	1	505
6	1	1	1	1	492
7	1	1	1	1	480
8	1	1	1	1	472
9	1	1	1	1	467
10	1	1	1	1	472
11	1	1	1	1	483
12	1	1	1	1	497
13	1	1	1	1	518
14	1	1	1	1	540
15	1	1	1	1	560
0	1	1	1	1	575
1	1	1	1	1	591
2	1	1	1	1	595
3	1	1	1	1	598
4	1	1	1	1	591
5	1	1	1	1	579
6	1	1	1	1	568
7	1	1	1	1	547
8	1	1	1	1	529
9	1	1	1	1	512
10	1	1	1	1	496
11	1	1	1	1	483
12	1	1	1	1	476
13	1	1	1	1	472
14	1	1	1	1	478
15	1	1	1	1	487
0	1	1	1	1	504
1	1	1	1	1	524
2	1	1	1	1	543
3	1	1	1	1	568
4	1	1	1	1	583
5	1	1	1	1	595
6	1	1	1	1	600
7	1	1	1	1	600
8	1	1	1	1	591
9	1	1	1	1	579
10	1	1	1	1	563
11	1	1	1	1	543
12	1	1	1	1	526
13	1	1	1	1	504
14	1	1	1	1	487
15	1	1	1	1	472
0	1	1	1	1	463
1	1	1	1	1	460
2	1	1	1	1	460
3	1	1	1	1	467
4	1	1	1	1	483
5	1	1	1	1	499
6	1	1	1	1	519
7	1	1	1	1	540
8	1	1	1	1	556
9	1	1	1	1	568
10	1	1	1	1	572
11	1	1	1	1	568
12	1	1	1	1	560
13	1	1	1	1	547
14	1	1	1	1	529
15	1	1	1	1	510
0	1	1	1	1	487
1	1	1	1	1	465
2	1	1	1	1	448
3	1	1	1	1	432
4	1	1	1	1	419
5	1	1	1	1	414
6	1	1	1	1	414
7	1	1	1	1	419
8	1	1	1	1	433
9	1	1	1	1	451
10	1	1	1	1	472
11	1	1	1	1	487
12	1	1	1	1	505
13	1	1	1	1	518
14	1	1	1	1	524
15	1	1	1	1	519
0	1	1	1	1	512
1	1	1	1	1	499
2	1	1	1	1	481
3	1	1	1	1	463
4	1	1	1	1	441
5	1	1	1	1	423
6	1	1	1	1	403
7	1	1	1	1	387
8	1	1	1	1	377
9	1	1	1	1	374
10	1	1	1	1	376
11	1	1	1	1	384
12	1	1	1	1	398
13	1	1	1	1	415
14	1	1	1	1	435
15	1	1	1	1	455
0	1	1	1	1	472
1	1	1	1	1	483
2	1	1	1	1	487
3	1	1	1	1	487
4	1	1	1	1	480
5	1	1	1	1	467
6	1	1	1	1	451
7	1	1	1	1	433
8	1	1	1	1	415
9	1	1	1	1	396
10	1	1	1	1	384
11	1	1	1	1	368
12	1	1	1	1	359
13	1	1	1	1	355
14	1	1	1	1	359
15	1	1	1	1	371
0	1	1	1	1	387
1	1	1	1	1	408
2	1	1	1	1	432
3	1	1	1	1	451
4	1	1	1	1	472
5	1	1	1	1	483
6	1	1	1	1	487
7	1	1	1	1	487
8	1	1	1	1	483
9	1	1	1	1	472
10	1	1	1	1	455
11	1	1	1	1	435
12	1	1	1	1	415
13	1	1	1	1	399
14	1	1	1	1	384
15	1	1	1	1	369
0	1	1	1	1	364
1	1	1	1	1	359
2	1	1	1	1	366
3	1	1	1	1	376
4	1	1	1	1	391
5	1	1	1	1	415
6	1	1	1	1	438
7	1	1	1	1	460
8	1	1	1	1	480
9	1	1	1	1	492
10	1	1	1	1	499
11	1	1	1	1	504
12	1	1	1	1	496
13	1	1	1	1	483
14	1	1	1	1	467
15	1	1	1	1	449
0	1	1	1	1	432
1	1	1	1	1	412
2	1	1	1	1	396
3	1	1	1	1	384
4	1	1	1	1	369
5	1	1	1	1	366
6	1	1	1	1	368
7	1	1	1	1	376
8	1	1	1	1	391
9	1	1	1	1	412
10	1	1	1	1	435
11	1	1	1	1	455
12	1	1	1	1	478
13	1	1	1	1	492
14	1	1	1	1	504
15	1	1	1	1	504
0	1	1	1	1	504
1	1	1	1	1	492
2	1	1	1	1	480
3	1	1	1	1	463
4	1	1	1	1	448
5	1	1	1	1	430
6	1	1	1	1	414
7	1	1	1	1	399
8	1	1	1	1	391
9	1	1	1	1	387
10	1	1	1	1	391
11	1	1	1	1	403
12	1	1	1	1	419
13	1	1	1	1	440
14	1	1	1	1	462
15	1	1	1	1	483
0	1	1	1	1	504
1	1	1	1	1	515
2	1	1	1	1	524
3	1	1	1	1	524
4	1	1	1	1	515
5	1	1	1	1	504
6	1	1	1	1	487
7	1	1	1	1	472
8	1	1	1	1	455
9	1	1	1	1	435
10	1	1	1	1	422
11	1	1	1	1	408
12	1	1	1	1	399
13	1	1	1	1	399
14	1	1	1	1	406
15	1	1	1	1	415
0	1	1	1	1	432
1	1	1	1	1	455
2	1	1	1	1	478
3	1	1	1	1	499
4	1	1	1	1	518
5	1	1	1	1	531
6	1	1	1	1	540
7	1	1	1	1	540
8	1	1	1	1	534
9	1	1	1	1	519
10	1	1	1	1	505
11	1	1	1	1	487
12	1	1	1	1	470
13	1	1	1	1	449
14	1	1	1	1	433
15	1	1	1	1	422
0	1	1	1	1	414
1	1	1	1	1	412
2	1	1	1	1	415
3	1	1	1	1	428
4	1	1	1	1	444
5	1	1	1	1	463
6	1	1	1	1	487
7	1	1	1	1	508
8	1	1	1	1	527
9	1	1	1	1	540
10	1	1	1	1	545
11	1	1	1	1	543
12	1	1	1	1	540
13	1	1	1	1	527
14	1	1	1	1	512
15	1	1	1	1	496
0	1	1	1	1	476
1	1	1	1	1	455
2	1	1	1	1	440
3	1	1	1	1	428
4	1	1	1	1	419
5	1	1	1	1	415
6	1	1	1	1	419
7	1	1	1	1	432
8	1	1	1	1	448
9	1	1	1	1	467
10	1	1	1	1	489
11	1	1	1	1	511
12	1	1	1	1	527
13	1	1	1	1	542
14	1	1	1	1	547
15	1	1	1	1	547
0	1	1	1	1	540
1	1	1	1	1	526
2	1	1	1	1	508
3	1	1	1	1	487
4	1	1	1	1	467
5	1	1	1	1	448
6	1	1	1	1	430
7	1	1	1	1	415
8	1	1	1	1	408
9	1	1	1	1	403
10	1	1	1	1	408
11	1	1	1	1	415
12	1	1	1	1	432
13	1	1	1	1	454
14	1	1	1	1	476
15	1	1	1	1	497
0	1	1	1	1	518
1	1	1	1	1	531
2	1	1	1	1	540
3	1	1	1	1	542
4	1	1	1	1	536
5	1	1	1	1	526
6	1	1	1	1	511
7	1	1	1	1	494
8	1	1	1	1	476
9	1	1	1	1	455
10	1	1	1	1	440
11	1	1	1	1	428
12	1	1	1	1	419
13	1	1	1	1	415
14	1	1	1	1	419
15	1	1	1	1	430
0	1	1	1	1	444
1	1	1	1	1	463
2	1	1	1	1	483
3	1	1	1	1	504
4	1	1	1	1	519
5	1	1	1	1	534
6	1	1	1	1	540
7	1	1	1	1	540
8	1	1	1	1	534
9	1	1	1	1	521
10	1	1	1	1	508
11	1	1	1	1	492
12	1	1	1	1	472
13	1	1	1	1	455
14	1	1	1	1	440
15	1	1	1	1	428
0	1	1	1	1	419
1	1	1	1	1	415
2	1	1	1	1	423
3	1	1	1	1	432
4	1	1	1	1	448
5	1	1	1	1	467
6	1	1	1	1	487
7	1	1	1	1	510
8	1	1	1	1	527
9	1	1	1	1	540
10	1	1	1	1	543
11	1	1	1	1	543
12	1	1	1	1	536
13	1	1	1	1	526
14	1	1	1	1	510
15	1	1	1	1	492
0	1	1	1	1	472
1	1	1	1	1	455
2	1	1	1	1	440
3	1	1	1	1	423
4	1	1	1	1	415
5	1	1	1	1	415
6	1	1	1	1	419
7	1	1	1	1	430
8	1	1	1	1	448
9	1	1	1	1	465
10	1	1	1	1	487
11	1	1	1	1	510
12	1	1	1	1	527
13	1	1	1	1	540
14	1	1	1	1	543
15	1	1	1	1	543
0	1	1	1	1	537
1	1	1	1	1	526
2	1	1	1	1	510
3	1	1	1	1	492
4	1	1	1	1	472
5	1	1	1	1	451
6	1	1	1	1	433
7	1	1	1	1	419
8	1	1	1	1	412
9	1	1	1	1	408
10	1	1	1	1	412
11	1	1	1	1	419
12	1	1	1	1	435
13	1	1	1	1	455
14	1	1	1	1	478
15	1	1	1	1	497
0	1	1	1	1	515
1	1	1	1	1	527
2	1	1	1	1	536
3	1	1	1	1	536
4	1	1	1	1	527
5	1	1	1	1	515
6	1	1	1	1	499
7	1	1	1	1	481
8	1	1	1	1	463
9	1	1	1	1	444
10	1	1	1	1	423
11	1	1	1	1	412
12	1	1	1	1	401
13	1	1	1	1	399
14	1	1	1	1	399
15	1	1	1	1	412
0	1	1	1	1	428
1	1	1	1	1	448
2	1	1	1	1	467
3	1	1	1	1	487
4	1	1	1	1	504
5	1	1	1	1	518
6	1	1	1	1	524
7	1	1	1	1	521
8	1	1	1	1	515
9	1	1	1	1	504
10	1	1	1	1	487
11	1	1	1	1	472
12	1	1	1	1	451
13	1	1	1	1	433
14	1	1	1	1	415
15	1	1	1	1	408
0	1	1	1	1	398
1	1	1	1	1	396
2	1	1	1	1	399
3	1	1	1	1	412
4	1	1	1	1	428
5	1	1	1	1	448
6	1	1	1	1	467
7	1	1	1	1	487
8	1	1	1	1	504
9	1	1	1	1	515
10	1	1	1	1	519
11	1	1	1	1	519
12	1	1	1	1	512
13	1	1	1	1	499
14	1	1	1	1	483
15	1	1	1	1	465
0	1	1	1	1	448
1	1	1	1	1	430
2	1	1	1	1	415
3	1	1	1	1	401
4	1	1	1	1	396
5	1	1	1	1	391
6	1	1	1	1	398
7	1	1	1	1	408
8	1	1	1	1	423
9	1	1	1	1	448
10	1	1	1	1	467
11	1	1	1	1	489
12	1	1	1	1	510
13	1	1	1	1	521
14	1	1	1	1	527
15	1	1	1	1	527
0	1	1	1	1	524
1	1	1	1	1	511
2	1	1	1	1	496
3	1	1	1	1	476
4	1	1	1	1	455
5	1	1	1	1	435
6	1	1	1	1	415
7	1	1	1	1	403
8	1	1	1	1	391
9	1	1	1	1	387
10	1	1	1	1	391
11	1	1	1	1	399
12	1	1	1	1	415
13	1	1	1	1	438
14	1	1	1	1	460
15	1	1	1	1	481
0	1	1	1	1	499
1	1	1	1	1	515
2	1	1	1	1	521
3	1	1	1	1	524
4	1	1	1	1	518
5	1	1	1	1	505
6	1	1	1	1	489
7	1	1	1	1	472
8	1	1	1	1	451
9	1	1	1	1	432
10	1	1	1	1	415
11	1	1	1	1	401
12	1	1	1	1	391
13	1	1	1	1	387
14	1	1	1	1	391
15	1	1	1	1	399
0	1	1	1	1	414
1	1	1	1	1	432
2	1	1	1	1	449
3	1	1	1	1	472
4	1	1	1	1	487
5	1	1	1	1	499
6	1	1	1	1	504
7	1	1	1	1	504
8	1	1	1	1	499
9	1	1	1	1	487
10	1	1	1	1	472
11	1	1	1	1	455
12	1	1	1	1	440
13	1	1	1	1	419
14	1	1	1	1	403
15	1	1	1	1	391
0	1	1	1	1	384
1	1	1	1	1	384
2	1	1	1	1	385
3	1	1	1	1	396
4	1	1	1	1	414
5	1	1	1	1	433
6	1	1	1	1	455
7	1	1	1	1	480
8	1	1	1	1	496
9	1	1	1	1	511
10	1	1	1	1	518
11	1	1	1	1	519
12	1	1	1	1	512
13	1	1	1	1	504
14	1	1	1	1	487
15	1	1	1	1	467
0	1	1	1	1	449
1	1	1	1	1	432
2	1	1	1	1	415
3	1	1	1	1	403
4	1	1	1	1	396
5	1	1	1	1	391
6	1	1	1	1	399
7	1	1	1	1	408
8	1	1	1	1	425
9	1	1	1	1	448
10	1	1	1	1	472
11	1	1	1	1	492
12	1	1	1	1	512
13	1	1	1	1	527
14	1	1	1	1	536
15	1	1	1	1	536
0	1	1	1	1	534
1	1	1	1	1	524
2	1	1	1	1	511
3	1	1	1	1	496
4	1	1	1	1	481
5	1	1	1	1	467
6	1	1	1	1	455
7	1	1	1	1	449
8	1	1	1	1	449
9	1	1	1	1	455
10	1	1	1	1	467
11	1	1	1	1	487
12	1	1	1	1	513
13	1	1	1	1	543
14	1	1	1	1	575
15	1	1	1	1	608
0	1	1	1	1	638
1	1	1	1	1	664
2	1	1	1	1	679
3	1	1	1	1	689
4	1	1	1	1	696
5	1	1	1	1	691
6	1	1	1	1	686
7	1	1	1	1	671
8	1	1	1	1	659
9	1	1	1	1	639
10	1	1	1	1	624
11	1	1	1	1	608
12	1	1	1	1	591
13	1	1	1	1	579
14	1	1	1	1	572
15	1	1	1	1	568
0	1	1	1	1	568
1	1	1	1	1	568
2	1	1	1	1	572
3	1	1	1	1	572
4	1	1	1	1	568
5	1	1	1	1	560
6	1	1	1	1	543
7	1	1	1	1	519
8	1	1	1	1	496
9	1	1	1	1	463
10	1	1	1	1	432
11	1	1	1	1	398
12	1	1	1	1	366
13	1	1	1	1	335
14	1	1	1	1	312
15	1	1	1	1	295
0	1	1	1	1	287
1	1	1	1	1	287
2	1	1	1	1	295
3	1	1	1	1	316
4	1	1	1	1	344
5	1	1	1	1	374
6	1	1	1	1	408
7	1	1	1	1	440
8	1	1	1	1	472
9	1	1	1	1	497
10	1	1	1	1	515
11	1	1	1	1	527
12	1	1	1	1	531
13	1	1	1	1	527
14	1	1	1	1	519
15	1	1	1	1	511
0	1	1	1	1	496
1	1	1	1	1	483
2	1	1	1	1	472
3	1	1	1	1	462
4	1	1	1	1	455
5	1	1	1	1	454
6	1	1	1	1	457
7	1	1	1	1	467
8	1	1	1	1	483
9	1	1	1	1	504
10	1	1	1	1	524
11	1	1	1	1	543
12	1	1	1	1	560
13	1	1	1	1	572
14	1	1	1	1	575
15	1	1	1	1	575
0	1	1	1	1	572
1	1	1	1	1	560
2	1	1	1	1	543
3	1	1	1	1	527
4	1	1	1	1	511
5	1	1	1	1	494
6	1	1	1	1	480
7	1	1	1	1	465
8	1	1	1	1	460
9	1	1	1	1	457
10	1	1	1	1	463
11	1	1	1	1	476
12	1	1	1	1	492
13	1	1	1	1	511
14	1	1	1	1	531
15	1	1	1	1	551
0	1	1	1	1	568
1	1	1	1	1	575
2	1	1	1	1	583
3	1	1	1	1	582
4	1	1	1	1	574
5	1	1	1	1	560
6	1	1	1	1	543
7	1	1	1	1	524
8	1	1	1	1	504
9	1	1	1	1	483
10	1	1	1	1	465
11	1	1	1	1	451
12	1	1	1	1	444
13	1	1	1	1	441
14	1	1	1	1	448
15	1	1	1	1	455
0	1	1	1	1	472
1	1	1	1	1	492
2	1	1	1	1	513
3	1	1	1	1	536
4	1	1	1	1	551
5	1	1	1	1	563
6	1	1	1	1	568
7	1	1	1	1	568
8	1	1	1	1	560
9	1	1	1	1	550
10	1	1	1	1	531
11	1	1	1	1	513
12	1	1	1	1	496
13	1	1	1	1	476
14	1	1	1	1	460
15	1	1	1	1	448
0	1	1	1	1	440
1	1	1	1	1	435
2	1	1	1	1	440
3	1	1	1	1	451
4	1	1	1	1	467
5	1	1	1	1	487
6	1	1	1	1	510
7	1	1	1	1	529
8	1	1	1	1	547
9	1	1	1	1	560
10	1	1	1	1	568
11	1	1	1	1	563
12	1	1	1	1	560
13	1	1	1	1	543
14	1	1	1	1	529
15	1	1	1	1	512
0	1	1	1	1	496
1	1	1	1	1	476
2	1	1	1	1	462
3	1	1	1	1	448
4	1	1	1	1	440
5	1	1	1	1	440
6	1	1	1	1	444
7	1	1	1	1	455
8	1	1	1	1	472
9	1	1	1	1	492
10	1	1	1	1	511
11	1	1	1	1	531
12	1	1	1	1	547
13	1	1	1	1	560
14	1	1	1	1	568
15	1	1	1	1	563
0	1	1	1	1	560
1	1	1	1	1	543
2	1	1	1	1	529
3	1	1	1	1	512
4	1	1	1	1	494
5	1	1	1	1	476
6	1	1	1	1	457
7	1	1	1	1	448
8	1	1	1	1	438
9	1	1	1	1	433
10	1	1	1	1	440
11	1	1	1	1	448
12	1	1	1	1	463
13	1	1	1	1	483
14	1	1	1	1	504
15	1	1	1	1	524
0	1	1	1	1	542
1	1	1	1	1	551
2	1	1	1	1	560
3	1	1	1	1	558
4	1	1	1	1	551
5	1	1	1	1	537
6	1	1	1	1	519
7	1	1	1	1	504
8	1	1	1	1	483
9	1	1	1	1	467
10	1	1	1	1	451
11	1	1	1	1	440
12	1	1	1	1	432
13	1	1	1	1	430
14	1	1	1	1	435
15	1	1	1	1	448
0	1	1	1	1	463
1	1	1	1	1	483
2	1	1	1	1	505
3	1	1	1	1	527
4	1	1	1	1	543
5	1	1	1	1	558
6	1	1	1	1	563
7	1	1	1	1	561
8	1	1	1	1	556
9	1	1	1	1	543
10	1	1	1	1	527
11	1	1	1	1	508
12	1	1	1	1	487
13	1	1	1	1	472
14	1	1	1	1	455
15	1	1	1	1	444
0	1	1	1	1	435
1	1	1	1	1	435
2	1	1	1	1	440
3	1	1	1	1	454
4	1	1	1	1	472
5	1	1	1	1	492
6	1	1	1	1	515
7	1	1	1	1	536
8	1	1	1	1	556
9	1	1	1	1	568
10	1	1	1	1	574
11	1	1	1	1	574
12	1	1	1	1	568
13	1	1	1	1	553
14	1	1	1	1	537
15	1	1	1	1	519
0	1	1	1	1	499
1	1	1	1	1	480
2	1	1	1	1	463
3	1	1	1	1	449
4	1	1	1	1	440
5	1	1	1	1	440
6	1	1	1	1	441
7	1	1	1	1	454
8	1	1	1	1	470
9	1	1	1	1	487
10	1	1	1	1	512
11	1	1	1	1	536
12	1	1	1	1	551
13	1	1	1	1	563
14	1	1	1	1	572
15	1	1	1	1	572
0	1	1	1	1	568
1	1	1	1	1	556
2	1	1	1	1	540
3	1	1	1	1	524
4	1	1	1	1	504
5	1	1	1	1	487
6	1	1	1	1	472
7	1	1	1	1	455
8	1	1	1	1	449
9	1	1	1	1	448
10	1	1	1	1	451
11	1	1	1	1	463
12	1	1	1	1	480
13	1	1	1	1	499
14	1	1	1	1	519
15	1	1	1	1	542
0	1	1	1	1	560
1	1	1	1	1	572
2	1	1	1	1	575
3	1	1	1	1	575
4	1	1	1	1	569
5	1	1	1	1	560
6	1	1	1	1	543
7	1	1	1	1	524
8	1	1	1	1	504
9	1	1	1	1	487
10	1	1	1	1	472
11	1	1	1	1	455
12	1	1	1	1	448
13	1	1	1	1	448
14	1	1	1	1	451
15	1	1	1	1	463
0	1	1	1	1	480
1	1	1	1	1	499
2	1	1	1	1	521
3	1	1	1	1	543
4	1	1	1	1	560
5	1	1	1	1	575
6	1	1	1	1	579
7	1	1	1	1	579
8	1	1	1	1	574
9	1	1	1	1	561
10	1	1	1	1	543
11	1	1	1	1	527
12	1	1	1	1	510
13	1	1	1	1	492
14	1	1	1	1	473
15	1	1	1	1	462
0	1	1	1	1	454
1	1	1	1	1	449
2	1	1	1	1	455
3	1	1	1	1	463
4	1	1	1	1	480
5	1	1	1	1	499
6	1	1	1	1	519
7	1	1	1	1	542
8	1	1	1	1	560
9	1	1	1	1	568
10	1	1	1	1	575
11	1	1	1	1	572
12	1	1	1	1	563
13	1	1	1	1	551
14	1	1	1	1	531
15	1	1	1	1	512
0	1	1	1	1	492
1	1	1	1	1	472
2	1	1	1	1	455
3	1	1	1	1	440
4	1	1	1	1	432
5	1	1	1	1	428
6	1	1	1	1	431
7	1	1	1	1	440
8	1	1	1	1	454
9	1	1	1	1	472
10	1	1	1	1	492
11	1	1	1	1	511
12	1	1	1	1	527
13	1	1	1	1	536
14	1	1	1	1	542
15	1	1	1	1	537
0	1	1	1	1	527
1	1	1	1	1	513
2	1	1	1	1	496
3	1	1	1	1	476
4	1	1	1	1	455
5	1	1	1	1	433
6	1	1	1	1	415
7	1	1	1	1	403
8	1	1	1	1	391
9	1	1	1	1	391
10	1	1	1	1	396
11	1	1	1	1	406
12	1	1	1	1	422
13	1	1	1	1	440
14	1	1	1	1	463
15	1	1	1	1	486
0	1	1	1	1	504
1	1	1	1	1	515
2	1	1	1	1	524
3	1	1	1	1	521
4	1	1	1	1	515
5	1	1	1	1	504
6	1	1	1	1	487
7	1	1	1	1	470
8	1	1	1	1	449
9	1	1	1	1	432
10	1	1	1	1	415
11	1	1	1	1	399
12	1	1	1	1	391
13	1	1	1	1	391
14	1	1	1	1	391
15	1	1	1	1	403
0	1	1	1	1	419
1	1	1	1	1	440
2	1	1	1	1	462
3	1	1	1	1	480
4	1	1	1	1	497
5	1	1	1	1	511
6	1	1	1	1	515
7	1	1	1	1	515
8	1	1	1	1	508
9	1	1	1	1	496
10	1	1	1	1	480
11	1	1	1	1	462
12	1	1	1	1	444
13	1	1	1	1	423
14	1	1	1	1	408
15	1	1	1	1	396
0	1	1	1	1	387
1	1	1	1	1	387
2	1	1	1	1	391
3	1	1	1	1	403
4	1	1	1	1	423
5	1	1	1	1	444
6	1	1	1	1	467
7	1	1	1	1	487
8	1	1	1	1	508
9	1	1	1	1	519
10	1	1	1	1	527
11	1	1	1	1	527
12	1	1	1	1	524
13	1	1	1	1	511
14	1	1	1	1	496
15	1	1	1	1	480
0	1	1	1	1	462
1	1	1	1	1	444
2	1	1	1	1	430
3	1	1	1	1	419
4	1	1	1	1	415
5	1	1	1	1	415
6	1	1	1	1	423
7	1	1	1	1	435
8	1	1	1	1	455
9	1	1	1	1	476
10	1	1	1	1	499
11	1	1	1	1	519
12	1	1	1	1	540
13	1	1	1	1	551
14	1	1	1	1	556
15	1	1	1	1	551
0	1	1	1	1	543
1	1	1	1	1	531
2	1	1	1	1	513
3	1	1	1	1	496
4	1	1	1	1	473
5	1	1	1	1	455
6	1	1	1	1	440
7	1	1	1	1	423
8	1	1	1	1	415
9	1	1	1	1	415
10	1	1	1	1	423
11	1	1	1	1	435
12	1	1	1	1	454
13	1	1	1	1	476
14	1	1	1	1	499
15	1	1	1	1	524
0	1	1	1	1	543
1	1	1	1	1	558
2	1	1	1	1	563
3	1	1	1	1	563
4	1	1	1	1	560
5	1	1	1	1	547
6	1	1	1	1	531
7	1	1	1	1	513
8	1	1	1	1	496
9	1	1	1	1	476
10	1	1	1	1	455
11	1	1	1	1	444
12	1	1	1	1	433
13	1	1	1	1	432
14	1	1	1	1	433
15	1	1	1	1	444
0	1	1	1	1	455
1	1	1	1	1	476
2	1	1	1	1	496
3	1	1	1	1	515
4	1	1	1	1	531
5	1	1	1	1	543
6	1	1	1	1	550
7	1	1	1	1	547
8	1	1	1	1	540
9	1	1	1	1	527
10	1	1	1	1	512
11	1	1	1	1	496
12	1	1	1	1	476
13	1	1	1	1	455
14	1	1	1	1	440
15	1	1	1	1	428
0	1	1	1	1	419
1	1	1	1	1	415
2	1	1	1	1	419
3	1	1	1	1	432
4	1	1	1	1	448
5	1	1	1	1	465
6	1	1	1	1	487
7	1	1	1	1	508
8	1	1	1	1	524
9	1	1	1	1	536
10	1	1	1	1	542
11	1	1	1	1	540
12	1	1	1	1	536
13	1	1	1	1	519
14	1	1	1	1	504
15	1	1	1	1	487
0	1	1	1	1	467
1	1	1	1	1	449
2	1	1	1	1	433
3	1	1	1	1	419
4	1	1	1	1	412
5	1	1	1	1	412
6	1	1	1	1	415
7	1	1	1	1	423
8	1	1	1	1	441
9	1	1	1	1	462
10	1	1	1	1	483
11	1	1	1	1	504
12	1	1	1	1	519
13	1	1	1	1	531
14	1	1	1	1	537
15	1	1	1	1	536
0	1	1	1	1	527
1	1	1	1	1	515
2	1	1	1	1	499
3	1	1	1	1	480
4	1	1	1	1	460
5	1	1	1	1	440
6	1	1	1	1	423
7	1	1	1	1	412
8	1	1	1	1	401
9	1	1	1	1	399
10	1	1	1	1	403
11	1	1	1	1	415
12	1	1	1	1	432
13	1	1	1	1	451
14	1	1	1	1	472
15	1	1	1	1	494
0	1	1	1	1	511
1	1	1	1	1	519
2	1	1	1	1	527
3	1	1	1	1	526
4	1	1	1	1	518
5	1	1	1	1	504
6	1	1	1	1	487
7	1	1	1	1	467
8	1	1	1	1	448
9	1	1	1	1	430
10	1	1	1	1	414
11	1	1	1	1	399
12	1	1	1	1	391
13	1	1	1	1	391
14	1	1	1	1	396
15	1	1	1	1	408
0	1	1	1	1	423
1	1	1	1	1	444
2	1	1	1	1	463
3	1	1	1	1	487
4	1	1	1	1	504
5	1	1	1	1	515
6	1	1	1	1	519
7	1	1	1	1	519
8	1	1	1	1	512
9	1	1	1	1	499
10	1	1	1	1	481
11	1	1	1	1	463
12	1	1	1	1	444
13	1	1	1	1	423
14	1	1	1	1	408
15	1	1	1	1	396
0	1	1	1	1	387
1	1	1	1	1	385
2	1	1	1	1	391
3	1	1	1	1	403
4	1	1	1	1	423
5	1	1	1	1	444
6	1	1	1	1	465
7	1	1	1	1	487
8	1	1	1	1	504
9	1	1	1	1	515
10	1	1	1	1	521
11	1	1	1	1	519
12	1	1	1	1	512
13	1	1	1	1	499
14	1	1	1	1	483
15	1	1	1	1	463
0	1	1	1	1	448
1	1	1	1	1	428
2	1	1	1	1	412
3	1	1	1	1	399
4	1	1	1	1	391
5	1	1	1	1	391
6	1	1	1	1	399
7	1	1	1	1	412
8	1	1	1	1	428
9	1	1	1	1	448
10	1	1	1	1	472
11	1	1	1	1	492
12	1	1	1	1	508
13	1	1	1	1	519
14	1	1	1	1	524
15	1	1	1	1	519
0	1	1	1	1	512
1	1	1	1	1	499
2	1	1	1	1	481
3	1	1	1	1	463
4	1	1	1	1	444
5	1	1	1	1	423
6	1	1	1	1	408
7	1	1	1	1	393
8	1	1	1	1	385
9	1	1	1	1	384
10	1	1	1	1	390
11	1	1	1	1	399
12	1	1	1	1	415
13	1	1	1	1	440
14	1	1	1	1	460
15	1	1	1	1	480
0	1	1	1	1	497
1	1	1	1	1	511
2	1	1	1	1	515
3	1	1	1	1	515
4	1	1	1	1	508
5	1	1	1	1	496
6	1	1	1	1	480
7	1	1	1	1	463
8	1	1	1	1	444
9	1	1	1	1	428
10	1	1	1	1	412
11	1	1	1	1	399
12	1	1	1	1	391
13	1	1	1	1	391
14	1	1	1	1	399
15	1	1	1	1	412
0	1	1	1	1	428
1	1	1	1	1	448
2	1	1	1	1	472
3	1	1	1	1	492
4	1	1	1	1	508
5	1	1	1	1	519
6	1	1	1	1	526
7	1	1	1	1	524
8	1	1	1	1	515
9	1	1	1	1	504
10	1	1	1	1	487
11	1	1	1	1	467
12	1	1	1	1	448
13	1	1	1	1	432
14	1	1	1	1	415
15	1	1	1	1	403
0	1	1	1	1	396
1	1	1	1	1	396
2	1	1	1	1	399
3	1	1	1	1	414
4	1	1	1	1	432
5	1	1	1	1	451
6	1	1	1	1	476
7	1	1	1	1	496
8	1	1	1	1	515
9	1	1	1	1	527
10	1	1	1	1	536
11	1	1	1	1	536
12	1	1	1	1	527
13	1	1	1	1	518
14	1	1	1	1	504
15	1	1	1	1	483
0	1	1	1	1	465
1	1	1	1	1	448
2	1	1	1	1	433
3	1	1	1	1	423
4	1	1	1	1	415
5	1	1	1	1	415
6	1	1	1	1	419
7	1	1	1	1	432
8	1	1	1	1	449
9	1	1	1	1	472
10	1	1	1	1	494
11	1	1	1	1	513
12	1	1	1	1	531
13	1	1	1	1	543
14	1	1	1	1	550
15	1	1	1	1	547
0	1	1	1	1	543
1	1	1	1	1	529
2	1	1	1	1	515
3	1	1	1	1	497
4	1	1	1	1	480
5	1	1	1	1	463
6	1	1	1	1	449
7	1	1	1	1	440
8	1	1	1	1	433
9	1	1	1	1	433
10	1	1	1	1	440
11	1	1	1	1	455
12	1	1	1	1	473
13	1	1	1	1	496
14	1	1	1	1	519
15	1	1	1	1	543
0	1	1	1	1	561
1	1	1	1	1	575
2	1	1	1	1	583
3	1	1	1	1	583
4	1	1	1	1	575
5	1	1	1	1	568
6	1	1	1	1	551
7	1	1	1	1	531
8	1	1	1	1	513
9	1	1	1	1	496
10	1	1	1	1	480
11	1	1	1	1	467
12	1	1	1	1	460
13	1	1	1	1	455
14	1	1	1	1	462
15	1	1	1	1	472
0	1	1	1	1	487
1	1	1	1	1	510
2	1	1	1	1	529
3	1	1	1	1	551
4	1	1	1	1	568
5	1	1	1	1	579
6	1	1	1	1	588
7	1	1	1	1	583
8	1	1	1	1	575
9	1	1	1	1	568
10	1	1	1	1	551
11	1	1	1	1	531
12	1	1	1	1	512
13	1	1	1	1	494
14	1	1	1	1	476
15	1	1	1	1	462
0	1	1	1	1	451
1	1	1	1	1	448
2	1	1	1	1	451
3	1	1	1	1	463
4	1	1	1	1	480
5	1	1	1	1	496
6	1	1	1	1	519
7	1	1	1	1	536
8	1	1	1	1	551
9	1	1	1	1	563
10	1	1	1	1	568
11	1	1	1	1	563
12	1	1	1	1	556
13	1	1	1	1	543
14	1	1	1	1	524
15	1	1	1	1	504
0	1	1	1	1	483
1	1	1	1	1	463
2	1	1	1	1	448
3	1	1	1	1	435
4	1	1	1	1	428
5	1	1	1	1	425
6	1	1	1	1	432
7	1	1	1	1	441
8	1	1	1	1	455
9	1	1	1	1	478
10	1	1	1	1	497
11	1	1	1	1	518
12	1	1	1	1	531
13	1	1	1	1	543
14	1	1	1	1	547
15	1	1	1	1	543
0	1	1	1	1	536
1	1	1	1	1	521
2	1	1	1	1	504
3	1	1	1	1	486
4	1	1	1	1	465
5	1	1	1	1	448
6	1	1	1	1	432
7	1	1	1	1	415
8	1	1	1	1	409
9	1	1	1	1	408
10	1	1	1	1	414
11	1	1	1	1	423
12	1	1	1	1	440
13	1	1	1	1	463
14	1	1	1	1	483
15	1	1	1	1	504
0	1	1	1	1	519
1	1	1	1	1	536
2	1	1	1	1	537
3	1	1	1	1	536
4	1	1	1	1	527
5	1	1	1	1	515
6	1	1	1	1	497
7	1	1	1	1	480
8	1	1	1	1	462
9	1	1	1	1	444
10	1	1	1	1	430
11	1	1	1	1	415
12	1	1	1	1	414
13	1	1	1	1	415
14	1	1	1	1	423
15	1	1	1	1	440
0	1	1	1	1	463
1	1	1	1	1	492
2	1	1	1	1	519
3	1	1	1	1	550
4	1	1	1	1	575
5	1	1	1	1	600
6	1	1	1	1	614
7	1	1	1	1	624
8	1	1	1	1	625
9	1	1	1	1	624
10	1	1	1	1	620
11	1	1	1	1	611
12	1	1	1	1	604
13	1	1	1	1	591
14	1	1	1	1	583
15	1	1	1	1	579
0	1	1	1	1	575
1	1	1	1	1	579
2	1	1	1	1	588
3	1	1	1	1	595
4	1	1	1	1	609
5	1	1	1	1	624
6	1	1	1	1	636
7	1	1	1	1	639
8	1	1	1	1	647
9	1	1	1	1	639
10	1	1	1	1	632
11	1	1	1	1	608
12	1	1	1	1	582
13	1	1	1	1	547
14	1	1	1	1	508
15	1	1	1	1	465
0	1	1	1	1	423
1	1	1	1	1	384
2	1	1	1	1	348
3	1	1	1	1	316
4	1	1	1	1	289
5	1	1	1	1	273
6	1	1	1	1	268
7	1	1	1	1	271
8	1	1	1	1	286
9	1	1	1	1	305
10	1	1	1	1	327
11	1	1	1	1	355
12	1	1	1	1	384
13	1	1	1	1	403
14	1	1	1	1	419
15	1	1	1	1	430
0	1	1	1	1	432
1	1	1	1	1	432
2	1	1	1	1	423
3	1	1	1	1	415
4	1	1	1	1	408
5	1	1	1	1	399
6	1	1	1	1	391
7	1	1	1	1	385
8	1	1	1	1	384
9	1	1	1	1	390
10	1	1	1	1	399
11	1	1	1	1	415
12	1	1	1	1	438
13	1	1	1	1	462
14	1	1	1	1	486
15	1	1	1	1	508
0	1	1	1	1	527
1	1	1	1	1	542
2	1	1	1	1	547
3	1	1	1	1	543
4	1	1	1	1	540
5	1	1	1	1	527
6	1	1	1	1	510
7	1	1	1	1	487
8	1	1	1	1	472
9	1	1	1	1	451
10	1	1	1	1	435
11	1	1	1	1	423
12	1	1	1	1	415
13	1	1	1	1	414
14	1	1	1	1	419
15	1	1	1	1	432
0	1	1	1	1	449
1	1	1	1	1	472
2	1	1	1	1	496
3	1	1	1	1	515
4	1	1	1	1	536
5	1	1	1	1	543
6	1	1	1	1	551
7	1	1	1	1	551
8	1	1	1	1	543
9	1	1	1	1	527
10	1	1	1	1	512
11	1	1	1	1	492
12	1	1	1	1	472
13	1	1	1	1	451
14	1	1	1	1	435
15	1	1	1	1	423
0	1	1	1	1	415
1	1	1	1	1	414
2	1	1	1	1	415
3	1	1	1	1	430
4	1	1	1	1	448
5	1	1	1	1	465
6	1	1	1	1	487
7	1	1	1	1	510
8	1	1	1	1	527
9	1	1	1	1	537
10	1	1	1	1	543
11	1	1	1	1	542
12	1	1	1	1	536
13	1	1	1	1	519
14	1	1	1	1	504
15	1	1	1	1	487
0	1	1	1	1	470
1	1	1	1	1	451
2	1	1	1	1	435
3	1	1	1	1	423
4	1	1	1	1	419
5	1	1	1	1	419
6	1	1	1	1	423
7	1	1	1	1	440
8	1	1	1	1	455
9	1	1	1	1	480
10	1	1	1	1	502
11	1	1	1	1	524
12	1	1	1	1	542
13	1	1	1	1	553
14	1	1	1	1	560
15	1	1	1	1	560
0	1	1	1	1	551
1	1	1	1	1	540
2	1	1	1	1	524
3	1	1	1	1	504
4	1	1	1	1	487
5	1	1	1	1	467
6	1	1	1	1	451
7	1	1	1	1	440
8	1	1	1	1	432
9	1	1	1	1	432
10	1	1	1	1	435
11	1	1	1	1	448
12	1	1	1	1	463
13	1	1	1	1	486
14	1	1	1	1	508
15	1	1	1	1	527
0	1	1	1	1	543
1	1	1	1	1	558
2	1	1	1	1	563
3	1	1	1	1	561
4	1	1	1	1	556
5	1	1	1	1	543
6	1	1	1	1	527
7	1	1	1	1	512
8	1	1	1	1	496
9	1	1	1	1	480
10	1	1	1	1	463
11	1	1	1	1	454
12	1	1	1	1	448
13	1	1	1	1	448
14	1	1	1	1	455
15	1	1	1	1	467
0	1	1	1	1	483
1	1	1	1	1	505
2	1	1	1	1	527
3	1	1	1	1	547
4	1	1	1	1	563
5	1	1	1	1	575
6	1	1	1	1	582
7	1	1	1	1	575
8	1	1	1	1	574
9	1	1	1	1	560
10	1	1	1	1	543
11	1	1	1	1	526
12	1	1	1	1	508
13	1	1	1	1	487
14	1	1	1	1	472
15	1	1	1	1	460
0	1	1	1	1	451
1	1	1	1	1	448
2	1	1	1	1	454
3	1	1	1	1	463
4	1	1	1	1	480
5	1	1	1	1	499
6	1	1	1	1	519
7	1	1	1	1	537
8	1	1	1	1	551
9	1	1	1	1	563
10	1	1	1	1	568
11	1	1	1	1	568
12	1	1	1	1	560
13	1	1	1	1	547
14	1	1	1	1	531
15	1	1	1	1	513
0	1	1	1	1	496
1	1	1	1	1	480
2	1	1	1	1	467
3	1	1	1	1	457
4	1	1	1	1	455
5	1	1	1	1	455
6	1	1	1	1	463
7	1	1	1	1	480
8	1	1	1	1	496
9	1	1	1	1	519
10	1	1	1	1	543
11	1	1	1	1	566
12	1	1	1	1	583
13	1	1	1	1	593
14	1	1	1	1	600
15	1	1	1	1	600
0	1	1	1	1	591
1	1	1	1	1	575
2	1	1	1	1	560
3	1	1	1	1	542
4	1	1	1	1	521
5	1	1	1	1	504
6	1	1	1	1	487
7	1	1	1	1	476
8	1	1	1	1	467
9	1	1	1	1	467
10	1	1	1	1	472
11	1	1	1	1	483
12	1	1	1	1	504
13	1	1	1	1	521
14	1	1	1	1	543
15	1	1	1	1	563
0	1	1	1	1	582
1	1	1	1	1	591
2	1	1	1	1	600
3	1	1	1	1	595
4	1	1	1	1	590
5	1	1	1	1	575
6	1	1	1	1	560
7	1	1	1	1	543
8	1	1	1	1	524
9	1	1	1	1	505
10	1	1	1	1	492
11	1	1	1	1	480
12	1	1	1	1	472
13	1	1	1	1	472
14	1	1	1	1	478
15	1	1	1	1	487
0	1	1	1	1	508
1	1	1	1	1	529
2	1	1	1	1	551
3	1	1	1	1	575
4	1	1	1	1	591
5	1	1	1	1	606
6	1	1	1	1	611
7	1	1	1	1	609
8	1	1	1	1	604
9	1	1	1	1	591
10	1	1	1	1	575
11	1	1	1	1	560
12	1	1	1	1	540
13	1	1	1	1	524
14	1	1	1	1	508
15	1	1	1	1	496
0	1	1	1	1	487
1	1	1	1	1	487
2	1	1	1	1	496
3	1	1	1	1	508
4	1	1	1	1	524
5	1	1	1	1	543
6	1	1	1	1	568
7	1	1	1	1	583
8	1	1	1	1	600
9	1	1	1	1	611
10	1	1	1	1	615
11	1	1	1	1	611
12	1	1	1	1	604
13	1	1	1	1	591
14	1	1	1	1	574
15	1	1	1	1	556
0	1	1	1	1	536
1	1	1	1	1	515
2	1	1	1	1	502
3	1	1	1	1	487
4	1	1	1	1	480
5	1	1	1	1	480
6	1	1	1	1	486
7	1	1	1	1	497
8	1	1	1	1	513
9	1	1	1	1	536
10	1	1	1	1	556
11	1	1	1	1	575
12	1	1	1	1	590
13	1	1	1	1	600
14	1	1	1	1	600
15	1	1	1	1	600
0	1	1	1	1	588
1	1	1	1	1	572
2	1	1	1	1	551
3	1	1	1	1	529
4	1	1	1	1	508
5	1	1	1	1	487
6	1	1	1	1	467
7	1	1	1	1	451
8	1	1	1	1	441
9	1	1	1	1	440
10	1	1	1	1	441
11	1	1	1	1	451
12	1	1	1	1	465
13	1	1	1	1	486
14	1	1	1	1	505
15	1	1	1	1	526
0	1	1	1	1	542
1	1	1	1	1	551
2	1	1	1	1	553
3	1	1	1	1	551
4	1	1	1	1	542
5	1	1	1	1	527
6	1	1	1	1	508
7	1	1	1	1	487
8	1	1	1	1	463
9	1	1	1	1	448
10	1	1	1	1	428
11	1	1	1	1	412
12	1	1	1	1	403
13	1	1	1	1	399
14	1	1	1	1	401
15	1	1	1	1	412
0	1	1	1	1	428
1	1	1	1	1	448
2	1	1	1	1	465
3	1	1	1	1	483
4	1	1	1	1	499
5	1	1	1	1	510
6	1	1	1	1	511
7	1	1	1	1	508
8	1	1	1	1	497
9	1	1	1	1	483
10	1	1	1	1	463
11	1	1	1	1	448
12	1	1	1	1	423
13	1	1	1	1	408
14	1	1	1	1	391
15	1	1	1	1	376
0	1	1	1	1	369
1	1	1	1	1	368
2	1	1	1	1	371
3	1	1	1	1	384
4	1	1	1	1	399
5	1	1	1	1	422
6	1	1	1	1	444
7	1	1	1	1	463
8	1	1	1	1	480
9	1	1	1	1	492
10	1	1	1	1	496
11	1	1	1	1	494
12	1	1	1	1	486
13	1	1	1	1	472
14	1	1	1	1	455
15	1	1	1	1	435
0	1	1	1	1	415
1	1	1	1	1	396
2	1	1	1	1	380
3	1	1	1	1	368
4	1	1	1	1	359
5	1	1	1	1	355
6	1	1	1	1	359
7	1	1	1	1	374
8	1	1	1	1	391
9	1	1	1	1	412
10	1	1	1	1	432
11	1	1	1	1	454
12	1	1	1	1	472
13	1	1	1	1	481
14	1	1	1	1	487
15	1	1	1	1	483
0	1	1	1	1	478
1	1	1	1	1	463
2	1	1	1	1	448
3	1	1	1	1	430
4	1	1	1	1	409
5	1	1	1	1	391
6	1	1	1	1	376
7	1	1	1	1	366
8	1	1	1	1	359
9	1	1	1	1	359
10	1	1	1	1	366
11	1	1	1	1	380
12	1	1	1	1	396
13	1	1	1	1	415
14	1	1	1	1	440
15	1	1	1	1	462
0	1	1	1	1	480
1	1	1	1	1	492
2	1	1	1	1	496
3	1	1	1	1	494
4	1	1	1	1	483
5	1	1	1	1	472
6	1	1	1	1	454
7	1	1	1	1	433
8	1	1	1	1	415
9	1	1	1	1	396
10	1	1	1	1	384
11	1	1	1	1	368
12	1	1	1	1	359
13	1	1	1	1	359
14	1	1	1	1	368
15	1	1	1	1	384
0	1	1	1	1	399
1	1	1	1	1	419
2	1	1	1	1	444
3	1	1	1	1	463
4	1	1	1	1	481
5	1	1	1	1	496
6	1	1	1	1	499
7	1	1	1	1	497
8	1	1	1	1	487
9	1	1	1	1	480
10	1	1	1	1	462
11	1	1	1	1	444
12	1	1	1	1	423
13	1	1	1	1	408
14	1	1	1	1	391
15	1	1	1	1	384
0	1	1	1	1	376
1	1	1	1	1	376
2	1	1	1	1	384
3	1	1	1	1	391
4	1	1	1	1	409
5	1	1	1	1	432
6	1	1	1	1	451
7	1	1	1	1	472
8	1	1	1	1	487
9	1	1	1	1	502
10	1	1	1	1	505
11	1	1	1	1	504
12	1	1	1	1	496
13	1	1	1	1	483
14	1	1	1	1	467
15	1	1	1	1	451
0	1	1	1	1	432
1	1	1	1	1	415
2	1	1	1	1	399
3	1	1	1	1	390
4	1	1	1	1	384
5	1	1	1	1	384
6	1	1	1	1	391
7	1	1	1	1	403
8	1	1	1	1	423
9	1	1	1	1	444
10	1	1	1	1	465
11	1	1	1	1	487
12	1	1	1	1	504
13	1	1	1	1	515
14	1	1	1	1	519
15	1	1	1	1	518
0	1	1	1	1	510
1	1	1	1	1	496
2	1	1	1	1	480
3	1	1	1	1	460
4	1	1	1	1	440
5	1	1	1	1	422
6	1	1	1	1	403
7	1	1	1	1	391
8	1	1	1	1	385
9	1	1	1	1	384
10	1	1	1	1	391
11	1	1	1	1	401
12	1	1	1	1	419
13	1	1	1	1	440
14	1	1	1	1	463
15	1	1	1	1	483
0	1	1	1	1	502
1	1	1	1	1	513
2	1	1	1	1	519
3	1	1	1	1	518
4	1	1	1	1	511
5	1	1	1	1	497
6	1	1	1	1	483
7	1	1	1	1	463
8	1	1	1	1	448
9	1	1	1	1	432
10	1	1	1	1	415
11	1	1	1	1	408
12	1	1	1	1	399
13	1	1	1	1	399
14	1	1	1	1	408
15	1	1	1	1	419
0	1	1	1	1	440
1	1	1	1	1	460
2	1	1	1	1	481
3	1	1	1	1	504
4	1	1	1	1	519
5	1	1	1	1	531
6	1	1	1	1	536
7	1	1	1	1	536
8	1	1	1	1	527
9	1	1	1	1	512
10	1	1	1	1	496
11	1	1	1	1	478
12	1	1	1	1	455
13	1	1	1	1	440
14	1	1	1	1	423
15	1	1	1	1	408
0	1	1	1	1	399
1	1	1	1	1	399
2	1	1	1	1	408
3	1	1	1	1	415
4	1	1	1	1	433
5	1	1	1	1	455
6	1	1	1	1	476
7	1	1	1	1	496
8	1	1	1	1	512
9	1	1	1	1	524
10	1	1	1	1	527
11	1	1	1	1	527
12	1	1	1	1	519
13	1	1	1	1	505
14	1	1	1	1	489
15	1	1	1	1	472
0	1	1	1	1	454
1	1	1	1	1	435
2	1	1	1	1	419
3	1	1	1	1	408
4	1	1	1	1	401
5	1	1	1	1	401
6	1	1	1	1	408
7	1	1	1	1	423
8	1	1	1	1	440
9	1	1	1	1	463
10	1	1	1	1	487
11	1	1	1	1	508
12	1	1	1	1	526
13	1	1	1	1	537
14	1	1	1	1	543
15	1	1	1	1	542
0	1	1	1	1	536
1	1	1	1	1	521
2	1	1	1	1	508
3	1	1	1	1	487
4	1	1	1	1	472
5	1	1	1	1	455
6	1	1	1	1	440
7	1	1	1	1	432
8	1	1	1	1	423
9	1	1	1	1	423
10	1	1	1	1	432
11	1	1	1	1	448
12	1	1	1	1	463
13	1	1	1	1	487
14	1	1	1	1	508
15	1	1	1	1	527
0	1	1	1	1	543
1	1	1	1	1	556
2	1	1	1	1	560
3	1	1	1	1	556
4	1	1	1	1	547
5	1	1	1	1	534
6	1	1	1	1	515
7	1	1	1	1	496
8	1	1	1	1	476
9	1	1	1	1	455
10	1	1	1	1	440
11	1	1	1	1	428
12	1	1	1	1	415
13	1	1	1	1	415
14	1	1	1	1	422
15	1	1	1	1	432
0	1	1	1	1	448
1	1	1	1	1	467
2	1	1	1	1	487
3	1	1	1	1	508
4	1	1	1	1	524
5	1	1	1	1	536
6	1	1	1	1	540
7	1	1	1	1	536
8	1	1	1	1	527
9	1	1	1	1	515
10	1	1	1	1	497
11	1	1	1	1	480
12	1	1	1	1	462
13	1	1	1	1	444
14	1	1	1	1	428
15	1	1	1	1	415
0	1	1	1	1	409
1	1	1	1	1	409
2	1	1	1	1	415
3	1	1	1	1	428
4	1	1	1	1	448
5	1	1	1	1	463
6	1	1	1	1	487
7	1	1	1	1	505
8	1	1	1	1	519
9	1	1	1	1	531
10	1	1	1	1	536
11	1	1	1	1	529
12	1	1	1	1	519
13	1	1	1	1	508
14	1	1	1	1	487
15	1	1	1	1	472
0	1	1	1	1	449
1	1	1	1	1	432
2	1	1	1	1	415
3	1	1	1	1	403
4	1	1	1	1	398
5	1	1	1	1	396
6	1	1	1	1	401
7	1	1	1	1	414
8	1	1	1	1	432
9	1	1	1	1	451
10	1	1	1	1	472
11	1	1	1	1	492
12	1	1	1	1	508
13	1	1	1	1	519
14	1	1	1	1	521
15	1	1	1	1	519
0	1	1	1	1	511
1	1	1	1	1	496
2	1	1	1	1	480
3	1	1	1	1	460
4	1	1	1	1	440
5	1	1	1	1	419
6	1	1	1	1	403
7	1	1	1	1	391
8	1	1	1	1	384
9	1	1	1	1	384
10	1	1	1	1	387
11	1	1	1	1	399
12	1	1	1	1	419
13	1	1	1	1	440
14	1	1	1	1	463
15	1	1	1	1	483
0	1	1	1	1	499
1	1	1	1	1	512
2	1	1	1	1	515
3	1	1	1	1	513
4	1	1	1	1	508
5	1	1	1	1	494
6	1	1	1	1	478
7	1	1	1	1	455
8	1	1	1	1	440
9	1	1	1	1	419
10	1	1	1	1	406
11	1	1	1	1	391
12	1	1	1	1	385
13	1	1	1	1	385
14	1	1	1	1	391
15	1	1	1	1	403
0	1	1	1	1	422
1	1	1	1	1	444
2	1	1	1	1	463
3	1	1	1	1	483
4	1	1	1	1	504
5	1	1	1	1	512
6	1	1	1	1	518
7	1	1	1	1	515
8	1	1	1	1	508
9	1	1	1	1	496
10	1	1	1	1	480
11	1	1	1	1	462
12	1	1	1	1	444
13	1	1	1	1	423
14	1	1	1	1	412
15	1	1	1	1	399
0	1	1	1	1	391
1	1	1	1	1	391
2	1	1	1	1	398
3	1	1	1	1	408
4	1	1	1	1	423
5	1	1	1	1	448
6	1	1	1	1	465
7	1	1	1	1	487
8	1	1	1	1	504
9	1	1	1	1	513
10	1	1	1	1	519
11	1	1	1	1	518
12	1	1	1	1	511
13	1	1	1	1	499
14	1	1	1	1	483
15	1	1	1	1	467
0	1	1	1	1	451
1	1	1	1	1	435
2	1	1	1	1	423
3	1	1	1	1	412
4	1	1	1	1	408
5	1	1	1	1	408
6	1	1	1	1	412
7	1	1	1	1	423
8	1	1	1	1	440
9	1	1	1	1	457
10	1	1	1	1	480
11	1	1	1	1	496
12	1	1	1	1	511
13	1	1	1	1	519
14	1	1	1	1	524
15	1	1	1	1	519
0	1	1	1	1	511
1	1	1	1	1	497
2	1	1	1	1	480
3	1	1	1	1	463
4	1	1	1	1	444
5	1	1	1	1	428
6	1	1	1	1	412
7	1	1	1	1	399
8	1	1	1	1	391
9	1	1	1	1	391
10	1	1	1	1	399
11	1	1	1	1	414
12	1	1	1	1	432
13	1	1	1	1	451
14	1	1	1	1	473
15	1	1	1	1	496
0	1	1	1	1	511
1	1	1	1	1	521
2	1	1	1	1	527
3	1	1	1	1	524
4	1	1	1	1	515
5	1	1	1	1	504
6	1	1	1	1	483
7	1	1	1	1	465
8	1	1	1	1	448
9	1	1	1	1	430
10	1	1	1	1	415
11	1	1	1	1	403
12	1	1	1	1	396
13	1	1	1	1	396
14	1	1	1	1	399
15	1	1	1	1	414
0	1	1	1	1	432
1	1	1	1	1	451
2	1	1	1	1	472
3	1	1	1	1	492
4	1	1	1	1	508
5	1	1	1	1	519
6	1	1	1	1	524
7	1	1	1	1	521
8	1	1	1	1	515
9	1	1	1	1	504
10	1	1	1	1	487
11	1	1	1	1	472
12	1	1	1	1	451
13	1	1	1	1	435
14	1	1	1	1	419
15	1	1	1	1	409
0	1	1	1	1	403
1	1	1	1	1	403
2	1	1	1	1	412
3	1	1	1	1	423
4	1	1	1	1	440
5	1	1	1	1	462
6	1	1	1	1	483
7	1	1	1	1	504
8	1	1	1	1	519
9	1	1	1	1	529
10	1	1	1	1	536
11	1	1	1	1	531
12	1	1	1	1	524
13	1	1	1	1	511
14	1	1	1	1	494
15	1	1	1	1	476
0	1	1	1	1	455
1	1	1	1	1	440
2	1	1	1	1	423
3	1	1	1	1	412
4	1	1	1	1	408
5	1	1	1	1	408
6	1	1	1	1	414
7	1	1	1	1	423
8	1	1	1	1	444
9	1	1	1	1	465
10	1	1	1	1	487
11	1	1	1	1	511
12	1	1	1	1	527
13	1	1	1	1	542
14	1	1	1	1	547
15	1	1	1	1	551
0	1	1	1	1	543
1	1	1	1	1	537
2	1	1	1	1	527
3	1	1	1	1	515
4	1	1	1	1	504
5	1	1	1	1	496
6	1	1	1	1	487
7	1	1	1	1	487
8	1	1	1	1	492
9	1	1	1	1	499
10	1	1	1	1	515
11	1	1	1	1	536
12	1	1	1	1	561
13	1	1	1	1	591
14	1	1	1	1	620
15	1	1	1	1	647
0	1	1	1	1	671
1	1	1	1	1	689
2	1	1	1	1	704
3	1	1	1	1	704
4	1	1	1	1	704
5	1	1	1	1	691
6	1	1	1	1	675
7	1	1	1	1	655
8	1	1	1	1	632
9	1	1	1	1	608
10	1	1	1	1	579
11	1	1	1	1	556
12	1	1	1	1	536
13	1	1	1	1	518
14	1	1	1	1	504
15	1	1	1	1	497
0	1	1	1	1	496
1	1	1	1	1	496
2	1	1	1	1	496
3	1	1	1	1	496
4	1	1	1	1	492
5	1	1	1	1	483
6	1	1	1	1	472
7	1	1	1	1	451
8	1	1	1	1	430
9	1	1	1	1	403
10	1	1	1	1	380
11	1	1	1	1	353
12	1	1	1	1	332
13	1	1	1	1	312
14	1	1	1	1	297
15	1	1	1	1	287
0	1	1	1	1	287
1	1	1	1	1	295
2	1	1	1	1	307
3	1	1	1	1	327
4	1	1	1	1	355
5	1	1	1	1	385
6	1	1	1	1	415
7	1	1	1	1	448
8	1	1	1	1	476
9	1	1	1	1	496
10	1	1	1	1	510
11	1	1	1	1	515
12	1	1	1	1	513
13	1	1	1	1	508
14	1	1	1	1	496
15	1	1	1	1	481
0	1	1	1	1	465
1	1	1	1	1	451
2	1	1	1	1	435
3	1	1	1	1	423
4	1	1	1	1	415
5	1	1	1	1	415
6	1	1	1	1	423
7	1	1	1	1	433
8	1	1	1	1	449
9	1	1	1	1	472
10	1	1	1	1	492
11	1	1	1	1	511
12	1	1	1	1	527
13	1	1	1	1	537
14	1	1	1	1	543
15	1	1	1	1	542
0	1	1	1	1	536
1	1	1	1	1	519
2	1	1	1	1	508
3	1	1	1	1	489
4	1	1	1	1	472
5	1	1	1	1	455
6	1	1	1	1	444
7	1	1	1	1	433
8	1	1	1	1	428
9	1	1	1	1	430
10	1	1	1	1	435
11	1	1	1	1	448
12	1	1	1	1	463
13	1	1	1	1	486
14	1	1	1	1	505
15	1	1	1	1	524
0	1	1	1	1	540
1	1	1	1	1	547
2	1	1	1	1	551
3	1	1	1	1	543
4	1	1	1	1	536
5	1	1	1	1	521
6	1	1	1	1	504
7	1	1	1	1	487
8	1	1	1	1	467
9	1	1	1	1	448
10	1	1	1	1	433
11	1	1	1	1	423
12	1	1	1	1	415
13	1	1	1	1	415
14	1	1	1	1	423
15	1	1	1	1	440
0	1	1	1	1	455
1	1	1	1	1	478
2	1	1	1	1	497
3	1	1	1	1	519
4	1	1	1	1	536
5	1	1	1	1	543
6	1	1	1	1	547
7	1	1	1	1	543
8	1	1	1	1	536
9	1	1	1	1	524
10	1	1	1	1	504
11	1	1	1	1	486
12	1	1	1	1	463
13	1	1	1	1	448
14	1	1	1	1	430
15	1	1	1	1	415
0	1	1	1	1	408
1	1	1	1	1	408
2	1	1	1	1	412
3	1	1	1	1	423
4	1	1	1	1	440
5	1	1	1	1	462
6	1	1	1	1	481
7	1	1	1	1	504
8	1	1	1	1	519
9	1	1	1	1	527
10	1	1	1	1	531
11	1	1	1	1	529
12	1	1	1	1	519
13	1	1	1	1	508
14	1	1	1	1	492
15	1	1	1	1	476
0	1	1	1	1	455
1	1	1	1	1	440
2	1	1	1	1	423
3	1	1	1	1	414
4	1	1	1	1	408
5	1	1	1	1	408
6	1	1	1	1	415
7	1	1	1	1	428
8	1	1	1	1	448
9	1	1	1	1	467
10	1	1	1	1	487
11	1	1	1	1	508
12	1	1	1	1	524
13	1	1	1	1	536
14	1	1	1	1	537
15	1	1	1	1	536
0	1	1	1	1	527
1	1	1	1	1	512
2	1	1	1	1	496
3	1	1	1	1	480
4	1	1	1	1	460
5	1	1	1	1	441
6	1	1	1	1	428
7	1	1	1	1	415
8	1	1	1	1	409
9	1	1	1	1	409
10	1	1	1	1	415
11	1	1	1	1	430
12	1	1	1	1	448
13	1	1	1	1	467
14	1	1	1	1	487
15	1	1	1	1	508
0	1	1	1	1	524
1	1	1	1	1	536
2	1	1	1	1	540
3	1	1	1	1	536
4	1	1	1	1	527
5	1	1	1	1	512
6	1	1	1	1	496
7	1	1	1	1	476
8	1	1	1	1	455
9	1	1	1	1	440
10	1	1	1	1	423
11	1	1	1	1	412
12	1	1	1	1	408
13	1	1	1	1	408
14	1	1	1	1	414
15	1	1	1	1	425
0	1	1	1	1	444
1	1	1	1	1	463
2	1	1	1	1	487
3	1	1	1	1	508
4	1	1	1	1	524
5	1	1	1	1	536
6	1	1	1	1	537
7	1	1	1	1	536
8	1	1	1	1	527
9	1	1	1	1	512
10	1	1	1	1	496
11	1	1	1	1	480
12	1	1	1	1	460
13	1	1	1	1	444
14	1	1	1	1	430
15	1	1	1	1	419
0	1	1	1	1	415
1	1	1	1	1	415
2	1	1	1	1	423
3	1	1	1	1	440
4	1	1	1	1	455
5	1	1	1	1	480
6	1	1	1	1	499
7	1	1	1	1	519
8	1	1	1	1	537
9	1	1	1	1	547
10	1	1	1	1	551
11	1	1	1	1	551
12	1	1	1	1	543
13	1	1	1	1	527
14	1	1	1	1	512
15	1	1	1	1	494
0	1	1	1	1	473
1	1	1	1	1	455
2	1	1	1	1	440
3	1	1	1	1	430
4	1	1	1	1	423
5	1	1	1	1	423
6	1	1	1	1	432
7	1	1	1	1	444
8	1	1	1	1	460
9	1	1	1	1	481
10	1	1	1	1	504
11	1	1	1	1	524
12	1	1	1	1	542
13	1	1	1	1	551
14	1	1	1	1	556
15	1	1	1	1	556
0	1	1	1	1	545
1	1	1	1	1	534
2	1	1	1	1	515
3	1	1	1	1	497
4	1	1	1	1	480
5	1	1	1	1	460
6	1	1	1	1	444
7	1	1	1	1	432
8	1	1	1	1	423
9	1	1	1	1	423
10	1	1	1	1	432
11	1	1	1	1	444
12	1	1	1	1	462
13	1	1	1	1	483
14	1	1	1	1	504
15	1	1	1	1	527
0	1	1	1	1	543
1	1	1	1	1	556
2	1	1	1	1	561
3	1	1	1	1	561
4	1	1	1	1	556
5	1	1	1	1	543
6	1	1	1	1	529
7	1	1	1	1	513
8	1	1	1	1	497
9	1	1	1	1	481
10	1	1	1	1	467
11	1	1	1	1	455
12	1	1	1	1	451
13	1	1	1	1	454
14	1	1	1	1	462
15	1	1	1	1	473
0	1	1	1	1	492
1	1	1	1	1	512
2	1	1	1	1	536
3	1	1	1	1	556
4	1	1	1	1	572
5	1	1	1	1	582
6	1	1	1	1	583
7	1	1	1	1	583
8	1	1	1	1	575
9	1	1	1	1	561
10	1	1	1	1	543
11	1	1	1	1	527
12	1	1	1	1	508
13	1	1	1	1	492
14	1	1	1	1	476
15	1	1	1	1	463
0	1	1	1	1	457
1	1	1	1	1	455
2	1	1	1	1	463
3	1	1	1	1	476
4	1	1	1	1	494
5	1	1	1	1	512
6	1	1	1	1	536
7	1	1	1	1	551
8	1	1	1	1	568
9	1	1	1	1	575
10	1	1	1	1	575
11	1	1	1	1	572
12	1	1	1	1	561
13	1	1	1	1	543
14	1	1	1	1	527
15	1	1	1	1	505
0	1	1	1	1	483
1	1	1	1	1	463
2	1	1	1	1	448
3	1	1	1	1	433
4	1	1	1	1	423
5	1	1	1	1	423
6	1	1	1	1	428
7	1	1	1	1	440
8	1	1	1	1	455
9	1	1	1	1	472
10	1	1	1	1	494
11	1	1	1	1	511
12	1	1	1	1	526
13	1	1	1	1	536
14	1	1	1	1	537
15	1	1	1	1	536
0	1	1	1	1	526
1	1	1	1	1	511
2	1	1	1	1	496
3	1	1	1	1	476
4	1	1	1	1	455
5	1	1	1	1	440
6	1	1	1	1	422
7	1	1	1	1	409
8	1	1	1	1	403
9	1	1	1	1	403
10	1	1	1	1	408
11	1	1	1	1	422
12	1	1	1	1	440
13	1	1	1	1	460
14	1	1	1	1	480
15	1	1	1	1	497
0	1	1	1	1	513
1	1	1	1	1	524
2	1	1	1	1	527
3	1	1	1	1	526
4	1	1	1	1	515
5	1	1	1	1	504
6	1	1	1	1	487
7	1	1	1	1	467
8	1	1	1	1	448
9	1	1	1	1	432
10	1	1	1	1	415
11	1	1	1	1	408
12	1	1	1	1	399
13	1	1	1	1	399
14	1	1	1	1	408
15	1	1	1	1	419
0	1	1	1	1	438
1	1	1	1	1	455
2	1	1	1	1	480
3	1	1	1	1	497
4	1	1	1	1	513
5	1	1	1	1	524
6	1	1	1	1	527
7	1	1	1	1	524
8	1	1	1	1	515
9	1	1	1	1	504
10	1	1	1	1	486
11	1	1	1	1	467
12	1	1	1	1	448
13	1	1	1	1	432
14	1	1	1	1	415
15	1	1	1	1	408
0	1	1	1	1	399
1	1	1	1	1	401
2	1	1	1	1	412
3	1	1	1	1	423
4	1	1	1	1	444
5	1	1	1	1	465
6	1	1	1	1	487
7	1	1	1	1	511
8	1	1	1	1	527
9	1	1	1	1	542
10	1	1	1	1	543
11	1	1	1	1	543
12	1	1	1	1	537
13	1	1	1	1	526
14	1	1	1	1	510
15	1	1	1	1	492
0	1	1	1	1	473
1	1	1	1	1	455
2	1	1	1	1	444
3	1	1	1	1	432
4	1	1	1	1	428
5	1	1	1	1	428
6	1	1	1	1	433
7	1	1	1	1	448
8	1	1	1	1	463
9	1	1	1	1	483
10	1	1	1	1	504
11	1	1	1	1	526
12	1	1	1	1	540
13	1	1	1	1	551
14	1	1	1	1	551
15	1	1	1	1	550
0	1	1	1	1	542
1	1	1	1	1	527
2	1	1	1	1	511
3	1	1	1	1	492
4	1	1	1	1	472
5	1	1	1	1	455
6	1	1	1	1	440
7	1	1	1	1	430
8	1	1	1	1	423
9	1	1	1	1	423
10	1	1	1	1	430
11	1	1	1	1	444
12	1	1	1	1	460
13	1	1	1	1	480
14	1	1	1	1	504
15	1	1	1	1	519
0	1	1	1	1	536
1	1	1	1	1	543
2	1	1	1	1	547
3	1	1	1	1	543
4	1	1	1	1	536
5	1	1	1	1	519
6	1	1	1	1	504
7	1	1	1	1	483
8	1	1	1	1	463
9	1	1	1	1	448
10	1	1	1	1	432
11	1	1	1	1	417
12	1	1	1	1	412
13	1	1	1	1	412
14	1	1	1	1	415
15	1	1	1	1	432
0	1	1	1	1	448
1	1	1	1	1	467
2	1	1	1	1	487
3	1	1	1	1	510
4	1	1	1	1	524
5	1	1	1	1	536
6	1	1	1	1	537
7	1	1	1	1	536
8	1	1	1	1	526
9	1	1	1	1	512
10	1	1	1	1	496
11	1	1	1	1	478
12	1	1	1	1	460
13	1	1	1	1	440
14	1	1	1	1	428
15	1	1	1	1	415
0	1	1	1	1	409
1	1	1	1	1	409
2	1	1	1	1	415
3	1	1	1	1	432
4	1	1	1	1	448
5	1	1	1	1	467
6	1	1	1	1	487
7	1	1	1	1	510
8	1	1	1	1	524
9	1	1	1	1	536
10	1	1	1	1	536
11	1	1	1	1	531
12	1	1	1	1	521
13	1	1	1	1	508
14	1	1	1	1	492
15	1	1	1	1	472
0	1	1	1	1	451
1	1	1	1	1	435
2	1	1	1	1	419
3	1	1	1	1	408
4	1	1	1	1	403
5	1	1	1	1	401
6	1	1	1	1	408
7	1	1	1	1	422
8	1	1	1	1	440
9	1	1	1	1	455
10	1	1	1	1	480
11	1	1	1	1	496
12	1	1	1	1	512
13	1	1	1	1	519
14	1	1	1	1	524
15	1	1	1	1	519
0	1	1	1	1	510
1	1	1	1	1	496
2	1	1	1	1	478
3	1	1	1	1	455
4	1	1	1	1	440
5	1	1	1	1	419
6	1	1	1	1	406
7	1	1	1	1	391
8	1	1	1	1	387
9	1	1	1	1	387
10	1	1	1	1	396
11	1	1	1	1	408
12	1	1	1	1	423
13	1	1	1	1	448
14	1	1	1	1	467
15	1	1	1	1	487
0	1	1	1	1	504
1	1	1	1	1	512
2	1	1	1	1	515
3	1	1	1	1	511
4	1	1	1	1	504
5	1	1	1	1	487
6	1	1	1	1	472
7	1	1	1	1	455
8	1	1	1	1	435
9	1	1	1	1	415
10	1	1	1	1	403
11	1	1	1	1	391
12	1	1	1	1	387
13	1	1	1	1	387
14	1	1	1	1	391
15	1	1	1	1	408
0	1	1	1	1	423
1	1	1	1	1	444
2	1	1	1	1	463
3	1	1	1	1	483
4	1	1	1	1	497
5	1	1	1	1	508
6	1	1	1	1	511
7	1	1	1	1	508
8	1	1	1	1	497
9	1	1	1	1	486
10	1	1	1	1	467
11	1	1	1	1	449
12	1	1	1	1	432
13	1	1	1	1	415
14	1	1	1	1	399
15	1	1	1	1	391
0	1	1	1	1	384
1	1	1	1	1	384
2	1	1	1	1	391
3	1	1	1	1	403
4	1	1	1	1	423
5	1	1	1	1	444
6	1	1	1	1	463
7	1	1	1	1	481
8	1	1	1	1	496
9	1	1	1	1	505
10	1	1	1	1	510
11	1	1	1	1	504
12	1	1	1	1	496
13	1	1	1	1	481
14	1	1	1	1	463
15	1	1	1	1	448
0	1	1	1	1	430
1	1	1	1	1	412
2	1	1	1	1	398
3	1	1	1	1	385
4	1	1	1	1	384
5	1	1	1	1	384
6	1	1	1	1	387
7	1	1	1	1	399
8	1	1	1	1	419
9	1	1	1	1	440
10	1	1	1	1	463
11	1	1	1	1	483
12	1	1	1	1	499
13	1	1	1	1	511
14	1	1	1	1	515
15	1	1	1	1	512
0	1	1	1	1	504
1	1	1	1	1	492
2	1	1	1	1	476
3	1	1	1	1	455
4	1	1	1	1	440
5	1	1	1	1	423
6	1	1	1	1	408
7	1	1	1	1	398
8	1	1	1	1	391
9	1	1	1	1	391
10	1	1	1	1	399
11	1	1	1	1	412
12	1	1	1	1	430
13	1	1	1	1	449
14	1	1	1	1	472
15	1	1	1	1	492
0	1	1	1	1	508
1	1	1	1	1	515
2	1	1	1	1	519
3	1	1	1	1	518
4	1	1	1	1	510
5	1	1	1	1	496
6	1	1	1	1	480
7	1	1	1	1	463
8	1	1	1	1	444
9	1	1	1	1	428
10	1	1	1	1	412
11	1	1	1	1	399
12	1	1	1	1	396
13	1	1	1	1	396
14	1	1	1	1	401
15	1	1	1	1	415
0	1	1	1	1	432
1	1	1	1	1	454
2	1	1	1	1	473
3	1	1	1	1	494
4	1	1	1	1	510
5	1	1	1	1	519
6	1	1	1	1	519
7	1	1	1	1	519
8	1	1	1	1	508
9	1	1	1	1	496
10	1	1	1	1	478
11	1	1	1	1	460
12	1	1	1	1	440
13	1	1	1	1	423
14	1	1	1	1	408
15	1	1	1	1	399
0	1	1	1	1	391
1	1	1	1	1	396
2	1	1	1	1	403
3	1	1	1	1	419
4	1	1	1	1	440
5	1	1	1	1	462
6	1	1	1	1	483
7	1	1	1	1	504
8	1	1	1	1	521
9	1	1	1	1	531
10	1	1	1	1	536
11	1	1	1	1	531
12	1	1	1	1	524
13	1	1	1	1	510
14	1	1	1	1	492
15	1	1	1	1	473
0	1	1	1	1	455
1	1	1	1	1	438
2	1	1	1	1	423
3	1	1	1	1	412
4	1	1	1	1	408
5	1	1	1	1	408
6	1	1	1	1	415
7	1	1	1	1	428
8	1	1	1	1	448
9	1	1	1	1	465
10	1	1	1	1	487
11	1	1	1	1	508
12	1	1	1	1	524
13	1	1	1	1	536
14	1	1	1	1	536
15	1	1	1	1	536
0	1	1	1	1	527
1	1	1	1	1	515
2	1	1	1	1	499
3	1	1	1	1	481
4	1	1	1	1	463
5	1	1	1	1	448
6	1	1	1	1	432
7	1	1	1	1	423
8	1	1	1	1	415
9	1	1	1	1	417
10	1	1	1	1	423
11	1	1	1	1	440
12	1	1	1	1	457
13	1	1	1	1	480
14	1	1	1	1	504
15	1	1	1	1	524
0	1	1	1	1	540
1	1	1	1	1	551
2	1	1	1	1	553
3	1	1	1	1	551
4	1	1	1	1	543
5	1	1	1	1	527
6	1	1	1	1	512
7	1	1	1	1	494
8	1	1	1	1	476
9	1	1	1	1	455
10	1	1	1	1	444
11	1	1	1	1	432
12	1	1	1	1	428
13	1	1	1	1	428
14	1	1	1	1	435
15	1	1	1	1	448
0	1	1	1	1	465
1	1	1	1	1	487
2	1	1	1	1	510
3	1	1	1	1	527
4	1	1	1	1	543
5	1	1	1	1	551
6	1	1	1	1	556
7	1	1	1	1	551
8	1	1	1	1	540
9	1	1	1	1	526
10	1	1	1	1	505
11	1	1	1	1	486
12	1	1	1	1	463
13	1	1	1	1	448
14	1	1	1	1	430
15	1	1	1	1	415
0	1	1	1	1	409
1	1	1	1	1	408
2	1	1	1	1	415
3	1	1	1	1	428
4	1	1	1	1	444
5	1	1	1	1	463
6	1	1	1	1	483
7	1	1	1	1	504
8	1	1	1	1	519
9	1	1	1	1	527
10	1	1	1	1	531
11	1	1	1	1	527
12	1	1	1	1	519
13	1	1	1	1	504
14	1	1	1	1	487
15	1	1	1	1	467
0	1	1	1	1	449
1	1	1	1	1	432
2	1	1	1	1	415
3	1	1	1	1	406
4	1	1	1	1	399
5	1	1	1	1	399
6	1	1	1	1	406
7	1	1	1	1	415
8	1	1	1	1	433
9	1	1	1	1	455
10	1	1	1	1	476
11	1	1	1	1	494
12	1	1	1	1	510
13	1	1	1	1	519
14	1	1	1	1	519
15	1	1	1	1	515
0	1	1	1	1	508
1	1	1	1	1	492
2	1	1	1	1	476
3	1	1	1	1	455
4	1	1	1	1	440
5	1	1	1	1	419
6	1	1	1	1	406
7	1	1	1	1	393
8	1	1	1	1	387
9	1	1	1	1	387
10	1	1	1	1	396
11	1	1	1	1	408
12	1	1	1	1	423
13	1	1	1	1	448
14	1	1	1	1	467
15	1	1	1	1	487
0	1	1	1	1	504
1	1	1	1	1	511
2	1	1	1	1	513
3	1	1	1	1	511
4	1	1	1	1	504
5	1	1	1	1	487
6	1	1	1	1	472
7	1	1	1	1	451
8	1	1	1	1	433
9	1	1	1	1	415
10	1	1	1	1	399
11	1	1	1	1	391
12	1	1	1	1	384
13	1	1	1	1	384
14	1	1	1	1	391
15	1	1	1	1	403
0	1	1	1	1	419
1	1	1	1	1	440
2	1	1	1	1	462
3	1	1	1	1	480
4	1	1	1	1	494
5	1	1	1	1	504
6	1	1	1	1	504
7	1	1	1	1	504
8	1	1	1	1	492
9	1	1	1	1	480
10	1	1	1	1	463
11	1	1	1	1	448
12	1	1	1	1	430
13	1	1	1	1	415
14	1	1	1	1	408
15	1	1	1	1	399
0	1	1	1	1	399
1	1	1	1	1	408
2	1	1	1	1	423
3	1	1	1	1	444
4	1	1	1	1	472
5	1	1	1	1	502
6	1	1	1	1	531
7	1	1	1	1	560
8	1	1	1	1	583
9	1	1	1	1	604
10	1	1	1	1	615
11	1	1	1	1	624
12	1	1	1	1	624
13	1	1	1	1	617
14	1	1	1	1	609
15	1	1	1	1	600
0	1	1	1	1	588
1	1	1	1	1	575
2	1	1	1	1	568
3	1	1	1	1	560
4	1	1	1	1	551
5	1	1	1	1	551
6	1	1	1	1	551
7	1	1	1	1	558
8	1	1	1	1	568
9	1	1	1	1	574
10	1	1	1	1	575
11	1	1	1	1	583
12	1	1	1	1	575
13	1	1	1	1	568
14	1	1	1	1	551
15	1	1	1	1	527
0	1	1	1	1	496
1	1	1	1	1	463
2	1	1	1	1	423
3	1	1	1	1	387
4	1	1	1	1	352
5	1	1	1	1	319
6	1	1	1	1	287
7	1	1	1	1	270
8	1	1	1	1	255
9	1	1	1	1	252
10	1	1	1	1	255
11	1	1	1	1	271
12	1	1	1	1	295
13	1	1	1	1	323
14	1	1	1	1	353
15	1	1	1	1	384
0	1	1	1	1	412
1	1	1	1	1	432
2	1	1	1	1	448
3	1	1	1	1	455
4	1	1	1	1	455
5	1	1	1	1	454
6	1	1	1	1	448
7	1	1	1	1	435
8	1	1	1	1	423
9	1	1	1	1	415
10	1	1	1	1	408
11	1	1	1	1	403
12	1	1	1	1	401
13	1	1	1	1	408
14	1	1	1	1	419
15	1	1	1	1	435
0	1	1	1	1	455
1	1	1	1	1	480
2	1	1	1	1	499
3	1	1	1	1	519
4	1	1	1	1	536
5	1	1	1	1	547
6	1	1	1	1	551
7	1	1	1	1	545
8	1	1	1	1	536
9	1	1	1	1	524
10	1	1	1	1	504
11	1	1	1	1	487
12	1	1	1	1	467
13	1	1	1	1	449
14	1	1	1	1	435
15	1	1	1	1	423
0	1	1	1	1	419
1	1	1	1	1	423
2	1	1	1	1	432
3	1	1	1	1	444
4	1	1	1	1	463
5	1	1	1	1	487
6	1	1	1	1	510
7	1	1	1	1	527
8	1	1	1	1	543
9	1	1	1	1	558
10	1	1	1	1	560
11	1	1	1	1	560
12	1	1	1	1	551
13	1	1	1	1	536
14	1	1	1	1	519
15	1	1	1	1	504
0	1	1	1	1	483
1	1	1	1	1	467
2	1	1	1	1	451
3	1	1	1	1	440
4	1	1	1	1	435
5	1	1	1	1	435
6	1	1	1	1	444
7	1	1	1	1	455
8	1	1	1	1	476
9	1	1	1	1	496
10	1	1	1	1	519
11	1	1	1	1	536
12	1	1	1	1	551
13	1	1	1	1	563
14	1	1	1	1	568
15	1	1	1	1	563
0	1	1	1	1	556
1	1	1	1	1	542
2	1	1	1	1	526
3	1	1	1	1	508
4	1	1	1	1	487
5	1	1	1	1	473
6	1	1	1	1	460
7	1	1	1	1	451
8	1	1	1	1	448
9	1	1	1	1	448
10	1	1	1	1	455
11	1	1	1	1	472
12	1	1	1	1	487
13	1	1	1	1	511
14	1	1	1	1	536
15	1	1	1	1	551
0	1	1	1	1	568
1	1	1	1	1	575
2	1	1	1	1	583
3	1	1	1	1	575
4	1	1	1	1	568
5	1	1	1	1	556
6	1	1	1	1	537
7	1	1	1	1	519
8	1	1	1	1	499
9	1	1	1	1	483
10	1	1	1	1	472
11	1	1	1	1	460
12	1	1	1	1	455
13	1	1	1	1	455
14	1	1	1	1	463
15	1	1	1	1	480
0	1	1	1	1	497
1	1	1	1	1	519
2	1	1	1	1	542
3	1	1	1	1	560
4	1	1	1	1	575
5	1	1	1	1	585
6	1	1	1	1	590
7	1	1	1	1	583
8	1	1	1	1	575
9	1	1	1	1	561
10	1	1	1	1	543
11	1	1	1	1	527
12	1	1	1	1	508
13	1	1	1	1	489
14	1	1	1	1	476
15	1	1	1	1	463
0	1	1	1	1	460
1	1	1	1	1	460
2	1	1	1	1	465
3	1	1	1	1	480
4	1	1	1	1	497
5	1	1	1	1	519
6	1	1	1	1	542
7	1	1	1	1	560
8	1	1	1	1	575
9	1	1	1	1	588
10	1	1	1	1	591
11	1	1	1	1	590
12	1	1	1	1	582
13	1	1	1	1	568
14	1	1	1	1	551
15	1	1	1	1	536
0	1	1	1	1	518
1	1	1	1	1	499
2	1	1	1	1	486
3	1	1	1	1	476
4	1	1	1	1	470
5	1	1	1	1	472
6	1	1	1	1	476
7	1	1	1	1	487
8	1	1	1	1	508
9	1	1	1	1	527
10	1	1	1	1	550
11	1	1	1	1	568
12	1	1	1	1	583
13	1	1	1	1	595
14	1	1	1	1	600
15	1	1	1	1	595
0	1	1	1	1	588
1	1	1	1	1	575
2	1	1	1	1	560
3	1	1	1	1	540
4	1	1	1	1	521
5	1	1	1	1	504
6	1	1	1	1	492
7	1	1	1	1	480
8	1	1	1	1	476
9	1	1	1	1	478
10	1	1	1	1	483
11	1	1	1	1	497
12	1	1	1	1	515
13	1	1	1	1	536
14	1	1	1	1	556
15	1	1	1	1	574
0	1	1	1	1	588
1	1	1	1	1	600
2	1	1	1	1	600
3	1	1	1	1	595
4	1	1	1	1	583
5	1	1	1	1	572
6	1	1	1	1	556
7	1	1	1	1	536
8	1	1	1	1	515
9	1	1	1	1	499
10	1	1	1	1	483
11	1	1	1	1	473
12	1	1	1	1	467
13	1	1	1	1	472
14	1	1	1	1	478
15	1	1	1	1	492
0	1	1	1	1	511
1	1	1	1	1	531
2	1	1	1	1	553
3	1	1	1	1	574
4	1	1	1	1	590
5	1	1	1	1	600
6	1	1	1	1	601
7	1	1	1	1	600
8	1	1	1	1	590
9	1	1	1	1	575
10	1	1	1	1	560
11	1	1	1	1	540
12	1	1	1	1	519
13	1	1	1	1	504
14	1	1	1	1	487
15	1	1	1	1	480
0	1	1	1	1	472
1	1	1	1	1	473
2	1	1	1	1	481
3	1	1	1	1	496
4	1	1	1	1	515
5	1	1	1	1	540
6	1	1	1	1	560
7	1	1	1	1	583
8	1	1	1	1	600
9	1	1	1	1	608
10	1	1	1	1	611
11	1	1	1	1	609
12	1	1	1	1	601
13	1	1	1	1	588
14	1	1	1	1	572
15	1	1	1	1	551
0	1	1	1	1	536
1	1	1	1	1	519
2	1	1	1	1	504
3	1	1	1	1	492
4	1	1	1	1	487
5	1	1	1	1	487
6	1	1	1	1	496
7	1	1	1	1	508
8	1	1	1	1	527
9	1	1	1	1	547
10	1	1	1	1	568
11	1	1	1	1	588
12	1	1	1	1	604
13	1	1	1	1	614
14	1	1	1	1	615
15	1	1	1	1	611
0	1	1	1	1	604
1	1	1	1	1	590
2	1	1	1	1	572
3	1	1	1	1	553
4	1	1	1	1	536
5	1	1	1	1	515
6	1	1	1	1	499
7	1	1	1	1	487
8	1	1	1	1	481
9	1	1	1	1	481
10	1	1	1	1	487
11	1	1	1	1	499
12	1	1	1	1	515
13	1	1	1	1	536
14	1	1	1	1	556
15	1	1	1	1	572
0	1	1	1	1	585
1	1	1	1	1	591
2	1	1	1	1	593
3	1	1	1	1	588
4	1	1	1	1	575
5	1	1	1	1	560
6	1	1	1	1	542
7	1	1	1	1	519
8	1	1	1	1	497
9	1	1	1	1	480
10	1	1	1	1	460
11	1	1	1	1	448
12	1	1	1	1	440
13	1	1	1	1	435
14	1	1	1	1	440
15	1	1	1	1	449
0	1	1	1	1	465
1	1	1	1	1	486
2	1	1	1	1	504
3	1	1	1	1	519
4	1	1	1	1	536
5	1	1	1	1	543
6	1	1	1	1	543
7	1	1	1	1	537
8	1	1	1	1	527
9	1	1	1	1	511
10	1	1	1	1	492
11	1	1	1	1	472
12	1	1	1	1	449
13	1	1	1	1	432
14	1	1	1	1	415
15	1	1	1	1	399
0	1	1	1	1	391
1	1	1	1	1	391
2	1	1	1	1	398
3	1	1	1	1	408
4	1	1	1	1	423
5	1	1	1	1	444
6	1	1	1	1	463
7	1	1	1	1	480
8	1	1	1	1	494
9	1	1	1	1	504
10	1	1	1	1	504
11	1	1	1	1	497
12	1	1	1	1	487
13	1	1	1	1	472
14	1	1	1	1	455
15	1	1	1	1	435
0	1	1	1	1	415
1	1	1	1	1	398
2	1	1	1	1	384
3	1	1	1	1	371
4	1	1	1	1	366
5	1	1	1	1	366
6	1	1	1	1	371
7	1	1	1	1	384
8	1	1	1	1	399
9	1	1	1	1	423
10	1	1	1	1	444
11	1	1	1	1	462
12	1	1	1	1	476
13	1	1	1	1	483
14	1	1	1	1	487
15	1	1	1	1	481
0	1	1	1	1	472
1	1	1	1	1	455
2	1	1	1	1	440
3	1	1	1	1	419
4	1	1	1	1	399
5	1	1	1	1	384
6	1	1	1	1	368
7	1	1	1	1	355
8	1	1	1	1	352
9	1	1	1	1	352
10	1	1	1	1	359
11	1	1	1	1	374
12	1	1	1	1	391
13	1	1	1	1	414
14	1	1	1	1	435
15	1	1	1	1	455
0	1	1	1	1	472
1	1	1	1	1	483
2	1	1	1	1	487
3	1	1	1	1	483
4	1	1	1	1	476
5	1	1	1	1	462
6	1	1	1	1	448
7	1	1	1	1	425
8	1	1	1	1	408
9	1	1	1	1	391
10	1	1	1	1	376
11	1	1	1	1	366
12	1	1	1	1	359
13	1	1	1	1	359
14	1	1	1	1	368
15	1	1	1	1	384
0	1	1	1	1	401
1	1	1	1	1	423
2	1	1	1	1	448
3	1	1	1	1	467
4	1	1	1	1	483
5	1	1	1	1	496
6	1	1	1	1	499
7	1	1	1	1	496
8	1	1	1	1	487
9	1	1	1	1	476
10	1	1	1	1	460
11	1	1	1	1	440
12	1	1	1	1	423
13	1	1	1	1	408
14	1	1	1	1	391
15	1	1	1	1	384
0	1	1	1	1	376
1	1	1	1	1	377
2	1	1	1	1	385
3	1	1	1	1	399
4	1	1	1	1	415
5	1	1	1	1	440
6	1	1	1	1	462
7	1	1	1	1	480
8	1	1	1	1	496
9	1	1	1	1	508
10	1	1	1	1	510
11	1	1	1	1	505
12	1	1	1	1	496
13	1	1	1	1	483
14	1	1	1	1	465
15	1	1	1	1	448
0	1	1	1	1	432
1	1	1	1	1	414
2	1	1	1	1	399
3	1	1	1	1	391
4	1	1	1	1	385
5	1	1	1	1	387
6	1	1	1	1	396
7	1	1	1	1	412
8	1	1	1	1	430
9	1	1	1	1	451
10	1	1	1	1	472
11	1	1	1	1	494
12	1	1	1	1	508
13	1	1	1	1	518
14	1	1	1	1	519
15	1	1	1	1	515
0	1	1	1	1	504
1	1	1	1	1	489
2	1	1	1	1	472
3	1	1	1	1	454
4	1	1	1	1	433
5	1	1	1	1	415
6	1	1	1	1	401
7	1	1	1	1	391
8	1	1	1	1	387
9	1	1	1	1	391
10	1	1	1	1	399
11	1	1	1	1	415
12	1	1	1	1	435
13	1	1	1	1	460
14	1	1	1	1	481
15	1	1	1	1	504
0	1	1	1	1	519
1	1	1	1	1	529
2	1	1	1	1	536
3	1	1	1	1	529
4	1	1	1	1	519
5	1	1	1	1	508
6	1	1	1	1	487
7	1	1	1	1	472
8	1	1	1	1	451
9	1	1	1	1	433
10	1	1	1	1	419
11	1	1	1	1	412
12	1	1	1	1	408
13	1	1	1	1	408
14	1	1	1	1	415
15	1	1	1	1	432
0	1	1	1	1	451
1	1	1	1	1	472
2	1	1	1	1	494
3	1	1	1	1	512
4	1	1	1	1	527
5	1	1	1	1	537
6	1	1	1	1	540
7	1	1	1	1	536
8	1	1	1	1	526
9	1	1	1	1	510
10	1	1	1	1	492
11	1	1	1	1	472
12	1	1	1	1	449
13	1	1	1	1	432
14	1	1	1	1	415
15	1	1	1	1	403
0	1	1	1	1	398
1	1	1	1	1	398
2	1	1	1	1	403
3	1	1	1	1	415
4	1	1	1	1	435
5	1	1	1	1	455
6	1	1	1	1	480
7	1	1	1	1	496
8	1	1	1	1	512
9	1	1	1	1	519
10	1	1	1	1	524
11	1	1	1	1	519
12	1	1	1	1	508
13	1	1	1	1	494
14	1	1	1	1	476
15	1	1	1	1	455
0	1	1	1	1	435
1	1	1	1	1	415
2	1	1	1	1	403
3	1	1	1	1	391
4	1	1	1	1	385
5	1	1	1	1	385
6	1	1	1	1	391
7	1	1	1	1	408
8	1	1	1	1	423
9	1	1	1	1	444
10	1	1	1	1	463
11	1	1	1	1	483
12	1	1	1	1	497
13	1	1	1	1	508
14	1	1	1	1	510
15	1	1	1	1	504
0	1	1	1	1	496
1	1	1	1	1	480
2	1	1	1	1	462
3	1	1	1	1	441
4	1	1	1	1	423
5	1	1	1	1	406
6	1	1	1	1	391
7	1	1	1	1	384
8	1	1	1	1	376
9	1	1	1	1	377
10	1	1	1	1	385
11	1	1	1	1	399
12	1	1	1	1	419
13	1	1	1	1	440
14	1	1	1	1	463
15	1	1	1	1	481
0	1	1	1	1	497
1	1	1	1	1	508
2	1	1	1	1	508
3	1	1	1	1	504
4	1	1	1	1	496
5	1	1	1	1	480
6	1	1	1	1	463
7	1	1	1	1	444
8	1	1	1	1	423
9	1	1	1	1	408
10	1	1	1	1	391
11	1	1	1	1	384
12	1	1	1	1	376
13	1	1	1	1	380
14	1	1	1	1	387
15	1	1	1	1	399
0	1	1	1	1	419
1	1	1	1	1	441
2	1	1	1	1	463
3	1	1	1	1	483
4	1	1	1	1	499
5	1	1	1	1	511
6	1	1	1	1	512
7	1	1	1	1	510
8	1	1	1	1	499
9	1	1	1	1	487
10	1	1	1	1	467
11	1	1	1	1	449
12	1	1	1	1	432
13	1	1	1	1	412
14	1	1	1	1	398
15	1	1	1	1	385
0	1	1	1	1	384
1	1	1	1	1	384
2	1	1	1	1	387
3	1	1	1	1	399
4	1	1	1	1	419
5	1	1	1	1	440
6	1	1	1	1	462
7	1	1	1	1	480
8	1	1	1	1	496
9	1	1	1	1	504
10	1	1	1	1	504
11	1	1	1	1	499
12	1	1	1	1	489
13	1	1	1	1	476
14	1	1	1	1	455
15	1	1	1	1	440
0	1	1	1	1	419
1	1	1	1	1	399
2	1	1	1	1	385
3	1	1	1	1	376
4	1	1	1	1	369
5	1	1	1	1	369
6	1	1	1	1	376
7	1	1	1	1	391
8	1	1	1	1	408
9	1	1	1	1	428
10	1	1	1	1	448
11	1	1	1	1	465
12	1	1	1	1	480
13	1	1	1	1	487
14	1	1	1	1	487
15	1	1	1	1	486
0	1	1	1	1	476
